SMA_5,SMA_10,SMA_20,SMA_50,EMA_5,EMA_10,EMA_20,EMA_50,RSI,STOCH_K,STOCH_D,MACD,MACD_Signal,MACD_Hist,ADX,CCI,WILLR,ULTOSC,ROC,ATR,NATR,TRANGE,BB_Upper,BB_Middle,BB_Lower,MOM,PPO,APO,AROON_Up,AROON_Down,AROONOSC,BOP,Price_Change,High_Low_Ratio,Close_Open_Ratio,ROE,ROA,Debt_to_Equity,Profit_Margin,Operating_Margin,Asset_Turnover,Financial_Leverage,EPS_Calc,Free_Cash_Flow,Operating_Cash_Flow,Investing_Cash_Flow,Financing_Cash_Flow,Beginning_Cash_Position,End_Cash_Position,Changes_In_Cash,Cash_And_Cash_Equivalents,Net_Income,Pretax_Income,Total_Revenue,Operating_Revenue,Normalized_Income,Net_Income_Common_Stockholders,Net_Income_From_Continuing_Operations,Net_Income_From_Continuing_And_Discontinued_Operation,Net_Income_Including_Noncontrolling_Interests,Net_Income_Continuous_Operations,Diluted_NI_Availto_Com_Stockholders,Net_Income_From_Continuing_Operation_Net_Minority_Interest,Basic_EPS,Diluted_EPS,Diluted_Average_Shares,Basic_Average_Shares,Share_Issued,Ordinary_Shares_Number,Capital_Stock,Common_Stock,Total_Assets,Total_Liabilities_Net_Minority_Interest,Total_Equity_Gross_Minority_Interest,Common_Stock_Equity,Stockholders_Equity,Total_Capitalization,Invested_Capital,Net_Tangible_Assets,Tangible_Book_Value,Total_Debt,Long_Term_Debt_And_Capital_Lease_Obligation,Tax_Rate_For_Calcs,Tax_Effect_Of_Unusual_Items,Close,Date,Sector_basic-materials,Sector_communication-services,Sector_consumer-cyclical,Sector_consumer-defensive,Sector_energy,Sector_financial-services,Sector_healthcare,Sector_industrials,Sector_real-estate,Sector_technology,Sector_utilities,Target_3M_Return,Target_Direction
78.02633819580078,81.3425193786621,85.38105239868165,91.99108169555664,78.02633819580078,81.3425193786621,85.38105239868165,91.99108169555664,73.7188894504944,90.9356734771601,90.51436711777184,3.3979173031218863,4.2680992530118385,-0.8701819498899521,50.93198365009549,84.48079588574852,-22.070095648801132,58.776097251389935,19.786700357684172,3.1841815030839262,3.739610294755498,2.4611075244825855,82.3388396856623,78.02633819580078,73.71383670593926,14.763725280761719,5.654909677228646,4.961301852495254,7.142857142857143,78.57142857142857,71.42857142857143,-0.05262946554054411,-0.35947816224131424,1.0128915456939303,0.9993250358982371,0.2102795311091073,0.12197928653624857,0.26632100991884583,0.23712440896842749,1.0,0.5144105031907104,1.7238954012623986,7.986301369863014,66220472.548831746,117819100.21792752,-45822261.81834765,-46814027.64887053,44616060.13257658,69812273.12423894,25182810.75070934,69812273.12423894,62508051.80484746,79515495.57421954,263608677.30479085,263608677.30479085,78425169.6637282,62508051.80484746,62508051.80484746,62508051.80484746,62508051.80484746,62508051.80484746,62508051.80484746,62508051.80484746,0.10761999485268546,0.107083905214565,7826908.7165589435,7786701.993699908,7847300.386995843,7843852.419270343,2760861.6363204494,2760861.6363204494,512448085.07936263,215186380.7415589,297261704.3378037,297261704.3378037,297261704.3378037,362383193.1284885,362383193.1284885,297261704.3378037,297261704.3378037,79167037.30944124,75454616.56545694,0.002868079563944544,-4333668.221120207,74.61438751220703,2021-12-31,0,0,0,0,1,0,0,0,0,0,0,37.97957372996353,1
78.02633819580078,81.3425193786621,85.38105239868165,91.99108169555664,78.02633819580078,81.3425193786621,85.38105239868165,91.99108169555664,73.7188894504944,90.9356734771601,90.51436711777184,3.3979173031218863,4.2680992530118385,-0.8701819498899521,50.93198365009549,84.48079588574852,-22.070095648801132,58.776097251389935,19.786700357684172,3.1841815030839262,3.739610294755498,2.4611075244825855,82.3388396856623,78.02633819580078,73.71383670593926,14.763725280761719,5.654909677228646,4.961301852495254,7.142857142857143,78.57142857142857,71.42857142857143,0.9658708314997614,0.026229933627863966,1.033186094402458,1.032038964931389,0.2102795311091073,0.12197928653624857,0.26632100991884583,0.23712440896842749,1.0,0.5144105031907104,1.7238954012623986,7.986301369863014,64527909.75871584,114807701.81924124,-44651067.28699645,-45617484.0694585,43475695.52454261,68027905.67357838,24539150.46278629,68027905.67357838,60910376.66760791,77483118.51820706,256870968.8411621,256870968.8411621,76420660.80306628,60910376.66760791,60910376.66760791,60910376.66760791,60910376.66760791,60910376.66760791,60910376.66760791,60910376.66760791,0.10486928058338153,0.10434689313340206,7626856.769700476,7587677.710952015,7646727.239045305,7643367.3996832725,2690295.367394346,2690295.367394346,499350163.43538934,209686322.42176515,289663841.01362425,289663841.01362425,289663841.01362425,353120856.4998821,353120856.4998821,289663841.01362425,289663841.01362425,77143566.6757204,73526033.58461246,0.0027947728573902426,-4222901.787516657,76.57151794433594,2022-01-03,0,0,0,0,1,0,0,0,0,0,0,34.9655981607715,1
78.02633819580078,81.3425193786621,85.38105239868165,91.99108169555664,78.02633819580078,81.3425193786621,85.38105239868165,91.99108169555664,73.7188894504944,90.9356734771601,90.51436711777184,3.3979173031218863,4.2680992530118385,-0.8701819498899521,50.93198365009549,84.48079588574852,-22.070095648801132,58.776097251389935,19.786700357684172,3.1841815030839262,3.739610294755498,4.292224222929988,82.3388396856623,78.02633819580078,73.71383670593926,14.763725280761719,5.654909677228646,4.961301852495254,7.142857142857143,78.57142857142857,71.42857142857143,0.7142854783734516,0.04596297749527678,1.05040911118679,1.0358500305590186,0.2102795311091073,0.12197928653624857,0.26632100991884583,0.23712440896842749,1.0,0.5144105031907104,1.7238954012623986,7.986301369863014,61692345.85457135,109762682.13064902,-42688955.773482986,-43612905.094114095,41565233.62676948,65038540.691451564,23460821.263051927,65038540.691451564,58233778.80301979,74078261.07168019,245583232.26342115,245583232.26342115,73062491.16586097,58233778.80301979,58233778.80301979,58233778.80301979,58233778.80301979,58233778.80301979,58233778.80301979,58233778.80301979,0.10026098709010482,0.09976155502489883,7291708.152007624,7254250.747117174,7310705.449017516,7307493.251803732,2572075.1358109084,2572075.1358109084,477407111.1304169,200472030.97368905,276935080.1567279,276935080.1567279,276935080.1567279,337603590.27762693,337603590.27762693,276935080.1567279,276935080.1567279,73753630.2292963,70295063.17774473,0.0026719615488521088,-4037333.900315536,80.09097290039062,2022-01-04,0,0,0,0,1,0,0,0,0,0,0,27.052748015657546,1
78.02633819580078,81.3425193786621,85.38105239868165,91.99108169555664,78.02633819580078,81.3425193786621,85.38105239868165,91.99108169555664,73.7188894504944,90.9356734771601,90.51436711777184,3.3979173031218863,4.2680992530118385,-0.8701819498899521,50.93198365009549,84.48079588574852,-22.070095648801132,58.776097251389935,19.786700357684172,3.1841815030839262,3.739610294755498,3.1750791937388385,82.3388396856623,78.02633819580078,73.71383670593926,14.763725280761719,5.654909677228646,4.961301852495254,7.142857142857143,78.57142857142857,71.42857142857143,-0.8994715936155253,-0.018353381564924276,1.0404061855263174,0.9649484378775371,0.2102795311091073,0.12197928653624857,0.26632100991884583,0.23712440896842749,1.0,0.5144105031907104,1.7238954012623986,7.986301369863014,62845778.40539015,111814862.97546749,-43487090.94677776,-44428314.90994289,42342359.09968504,66254535.46117736,23899457.118746832,66254535.46117736,59322548.16489368,75463267.20890099,250174785.56074053,250174785.56074053,74428505.93458565,59322548.16489368,59322548.16489368,59322548.16489368,59322548.16489368,59322548.16489368,59322548.16489368,59322548.16489368,0.10213551924616128,0.1016267495363423,7428037.763357185,7389880.035120761,7447390.243825337,7444117.989682694,2620164.005567774,2620164.005567774,486332965.615968,204220161.52134067,282112804.0946273,282112804.0946273,282112804.0946273,343915604.59488857,343915604.59488857,282112804.0946273,282112804.0946273,75132566.89751865,71609336.65702218,0.002721917947531571,-4112818.018720204,78.62103271484375,2022-01-05,0,0,0,0,1,0,0,0,0,0,0,30.622271716996867,1
78.02633819580078,81.3425193786621,85.38105239868165,91.99108169555664,78.02633819580078,81.3425193786621,85.38105239868165,91.99108169555664,73.7188894504944,90.9356734771601,90.51436711777184,3.3979173031218863,4.2680992530118385,-0.8701819498899521,50.93198365009549,84.48079588574852,-22.070095648801132,58.776097251389935,19.786700357684172,3.1841815030839262,3.739610294755498,3.1918919086011215,82.3388396856623,78.02633819580078,73.71383670593926,14.763725280761719,5.654909677228646,4.961301852495254,7.142857142857143,78.57142857142857,71.42857142857143,-0.6113082111642514,0.020512923026999585,1.0299249427956758,0.9822107623965697,0.2102795311091073,0.12197928653624857,0.26632100991884583,0.23712440896842749,1.0,0.5144105031907104,1.7238954012623986,7.986301369863014,61582540.492461205,109567317.0348566,-42612974.28531165,-43535279.08119146,41491252.23626864,64922779.48294483,23419063.66835349,64922779.48294483,58130129.297073275,73946410.18857971,245146122.0291883,245146122.0291883,72932448.23771477,58130129.297073275,58130129.297073275,58130129.297073275,58130129.297073275,58130129.297073275,58130129.297073275,58130129.297073275,0.10008253393128182,0.09958399079837382,7278729.74045686,7241339.005488759,7297693.224437788,7294486.744569863,2567497.134476221,2567497.134476221,476557380.7467611,200115213.54927284,276442167.19748825,276442167.19748825,276442167.19748825,337002694.26748806,337002694.26748806,276442167.19748825,276442167.19748825,73622357.15218951,70169945.95680158,0.002667205761057822,-4030147.9049583687,80.23377990722656,2022-01-06,0,0,0,0,1,0,0,0,0,0,0,28.528559482606315,1
79.59372100830078,81.3425193786621,85.38105239868165,91.99108169555664,79.50132598876952,81.3425193786621,85.38105239868165,91.99108169555664,73.7188894504944,90.9356734771601,90.51436711777184,3.3979173031218863,4.2680992530118385,-0.8701819498899521,50.93198365009549,84.48079588574852,-22.070095648801132,58.776097251389935,19.786700357684172,3.1841815030839262,3.739610294755498,2.8390908971697684,83.48242623321622,79.59372100830078,75.70501578338533,14.763725280761719,5.654909677228646,4.961301852495254,7.142857142857143,78.57142857142857,71.42857142857143,0.6360956428898721,0.027638254984927446,1.0356201630852437,1.0223935160716715,0.2102795311091073,0.12197928653624857,0.26632100991884583,0.23712440896842749,1.0,0.5144105031907104,1.7238954012623986,7.986301369863014,59926282.61329611,106620512.13387696,-41466901.48853661,-42364400.96503609,40375348.07117239,63176686.122780696,22789209.680304267,63176686.122780696,56566723.7620751,71957626.94691071,238552935.17929998,238552935.17929998,70970935.42784128,56566723.7620751,56566723.7620751,56566723.7620751,56566723.7620751,56566723.7620751,56566723.7620751,56566723.7620751,0.09739082157149721,0.09690568671933535,7082968.841563434,7046583.727651293,7101422.304042997,7098302.0622143475,2498444.488633677,2498444.488633677,463740405.1815402,194733129.65777823,269007275.5237619,269007275.5237619,269007275.5237619,327939031.6901262,327939031.6901262,269007275.5237619,269007275.5237619,71642289.29300548,68282730.44178447,0.0025954714590660528,-3921757.3746488057,82.45130157470703,2022-01-07,0,0,0,0,1,0,0,0,0,0,0,21.966470612674645,1
80.75287780761718,81.3425193786621,85.38105239868165,91.99108169555664,80.45665130615234,81.3425193786621,85.38105239868165,91.99108169555664,73.7188894504944,90.9356734771601,90.51436711777184,3.3979173031218863,4.2680992530118385,-0.8701819498899521,50.93198365009549,84.48079588574852,-22.070095648801132,58.776097251389935,19.786700357684172,3.1841815030839262,3.739610294755498,2.7550954165459416,83.68454665805534,80.75287780761718,77.82120895717902,14.763725280761719,5.654909677228646,4.961301852495254,7.142857142857143,78.57142857142857,71.42857142857143,-0.09146437908800595,-0.0010187787479977173,1.0341559806413745,0.9969499486590463,0.2102795311091073,0.12197928653624857,0.26632100991884583,0.23712440896842749,1.0,0.5144105031907104,1.7238954012623986,7.986301369863014,59987396.49799598,106729245.62110558,-41509190.16932772,-42407604.93169398,40416523.56644983,63241114.82656568,22812450.52008388,63241114.82656568,56624411.50913849,72031010.60971668,238796215.68894616,238796215.68894616,71043312.84515527,56624411.50913849,56624411.50913849,56624411.50913849,56624411.50913849,56624411.50913849,56624411.50913849,56624411.50913849,0.09749014245677144,0.09700451285549239,7090192.178674287,7053769.9585783575,7108664.460321819,7105541.036415273,2500992.446587163,2500992.446587163,464213335.86265415,194931721.95341498,269281613.9092392,269281613.9092392,269281613.9092392,328273469.7246131,328273469.7246131,269281613.9092392,269281613.9092392,71715351.3688853,68352366.3800278,0.002598118366842975,-3925756.8522997354,82.36730194091797,2022-01-10,0,0,0,0,1,0,0,0,0,0,0,22.733255977859304,1
81.90363159179688,81.3425193786621,85.38105239868165,91.99108169555664,82.25268147786458,81.3425193786621,85.38105239868165,91.99108169555664,73.7188894504944,90.9356734771601,90.51436711777184,3.3979173031218863,4.2680992530118385,-0.8701819498899521,50.93198365009549,84.48079588574852,-22.070095648801132,58.776097251389935,19.786700357684172,3.1841815030839262,3.739610294755498,4.208242199132556,86.77075743601132,81.90363159179688,77.03650574758244,14.763725280761719,5.654909677228646,4.961301852495254,7.142857142857143,78.57142857142857,71.42857142857143,0.5688617283236196,0.04221869356441288,1.0514215551733332,1.0286864470849837,0.2102795311091073,0.12197928653624857,0.26632100991884583,0.23712440896842749,1.0,0.5144105031907104,1.7238954012623986,7.986301369863014,57557398.33531257,102405806.26709831,-39827716.03085077,-40689737.37811107,38779311.68958825,60679313.484849855,21888352.85813647,60679313.484849855,54330642.75164902,69113143.96345061,229122944.31436205,229122944.31436205,68165456.33257204,54330642.75164902,54330642.75164902,54330642.75164902,54330642.75164902,54330642.75164902,54330642.75164902,54330642.75164902,0.09354096511486741,0.09307500762986184,6802979.281081267,6768032.469705849,6820703.278704411,6817706.379948101,2399681.047778666,2399681.047778666,445408759.9168207,187035334.48123428,258373425.43558645,258373425.43558645,258373425.43558645,314975610.9266376,314975610.9266376,258373425.43558645,258373425.43558645,68810271.59819698,65583516.014533445,0.002492872544779779,-3766730.415162246,85.84474182128906,2022-01-11,0,0,0,0,1,0,0,0,0,0,0,19.91894304950247,1
83.44413299560547,81.3425193786621,85.38105239868165,91.99108169555664,83.60963422987196,81.3425193786621,85.38105239868165,91.99108169555664,73.7188894504944,90.9356734771601,90.51436711777184,3.3979173031218863,4.2680992530118385,-0.8701819498899521,50.93198365009549,84.48079588574852,-22.070095648801132,58.776097251389935,19.786700357684172,3.1841815030839262,3.739610294755498,1.889928682938688,88.04896108804354,83.44413299560547,78.8393049031674,14.763725280761719,5.654909677228646,4.961301852495254,7.142857142857143,78.57142857142857,71.42857142857143,-0.23111300998263876,0.0055774867794979865,1.0222222222222221,0.9949655894292594,0.2102795311091073,0.12197928653624857,0.26632100991884583,0.23712440896842749,1.0,0.5144105031907104,1.7238954012623986,7.986301369863014,57238153.29204331,101837807.24354438,-39606809.574073285,-40464049.67599824,38564220.26092131,60342752.58009586,21766947.99347286,60342752.58009586,54029295.07267558,68729804.3881184,227852102.22651285,227852102.22651285,67787373.15498322,54029295.07267558,54029295.07267558,54029295.07267558,54029295.07267558,54029295.07267558,54029295.07267558,54029295.07267558,0.09302213538455936,0.09255876235649182,6765246.209786136,6730493.2326810695,6782871.9003531635,6779891.624048541,2386371.094547849,2386371.094547849,442938277.5297649,185997933.46631196,256940344.0634529,256940344.0634529,256940344.0634529,313228582.64795774,313228582.64795774,256940344.0634529,256940344.0634529,68428611.91987449,65219753.700506754,0.0024790457001613577,-3745838.0529438118,86.32353973388672,2022-01-12,0,0,0,0,1,0,0,0,0,0,0,25.442890198760026,1
84.65870056152343,81.3425193786621,85.38105239868165,91.99108169555664,84.50862873218678,81.3425193786621,85.38105239868165,91.99108169555664,73.7188894504944,91.45848109464957,91.89578786268338,3.3979173031218863,4.2680992530118385,-0.8701819498899521,50.93198365009549,84.48079588574852,-22.070095648801132,58.776097251389935,19.786700357684172,3.1841815030839262,3.739610294755498,2.3099676243123213,88.3483761333687,84.65870056152343,80.96902498967816,14.763725280761719,5.654909677228646,4.961301852495254,7.142857142857143,78.57142857142857,71.42857142857143,0.1831504697814006,-0.0001960299255855391,1.0271317397437838,1.0049261083743841,0.2102795311091073,0.12197928653624857,0.26632100991884583,0.23712440896842749,1.0,0.5144105031907104,1.7238954012623986,7.986301369863014,57249375.88293746,101857774.41548336,-39614575.21630504,-40471983.39589164,38571781.484375395,60354583.88468352,21771215.803286683,60354583.88468352,54039888.50799845,68743280.12820643,227896776.814713,227896776.814713,67800664.11412416,54039888.50799845,54039888.50799845,54039888.50799845,54039888.50799845,54039888.50799845,54039888.50799845,54039888.50799845,0.09304037408216713,0.09257691020130952,6766572.6605212465,6731812.869456925,6784201.806928532,6781220.946286021,2386838.9864167413,2386838.9864167413,443025123.7117986,186034401.7762485,256990721.9355501,256990721.9355501,256990721.9355501,313289996.86272943,313289996.86272943,256990721.9355501,256990721.9355501,68442028.60564898,65232541.23070996,0.0024795317625882648,-3746572.4932708684,86.3066177368164,2022-01-13,0,0,0,0,1,0,0,0,0,0,0,19.98915170908759,1
86.04406280517578,82.81889190673829,85.38105239868165,91.99108169555664,86.13179008578076,82.80353636308149,85.38105239868165,91.99108169555664,73.7188894504944,91.14239324186212,91.17884927122394,3.3979173031218863,4.2680992530118385,-0.8701819498899521,50.93198365009549,84.48079588574852,-22.070095648801132,58.776097251389935,19.786700357684172,3.1841815030839262,3.739610294755498,3.4014904205710366,90.5001804943277,86.04406280517578,81.58794511602387,14.763725280761719,5.654909677228646,4.961301852495254,7.142857142857143,78.57142857142857,71.42857142857143,0.8997430717633904,0.03558817546898396,1.0380887055151493,1.0342700488996917,0.2102795311091073,0.12197928653624857,0.26632100991884583,0.23712440896842749,1.0,0.5144105031907104,1.7238954012623986,7.986301369863014,55281990.69771253,98357413.52430497,-38253213.15431677,-39081156.34630842,37246255.21811071,58280487.663303904,21023044.023679793,58280487.663303904,52182797.93850056,66380904.83900596,220065062.74707708,220065062.74707708,65470681.99520477,52182797.93850056,52182797.93850056,52182797.93850056,52182797.93850056,52182797.93850056,52182797.93850056,52182797.93850056,0.08984302475260708,0.08939548789207107,6534038.16382597,6500472.899285768,6551061.481419668,6548183.058593758,2304814.831760531,2304814.831760531,427800484.98638666,179641295.81916058,248159189.16722608,248159189.16722608,248159189.16722608,302523729.3008397,302523729.3008397,248159189.16722608,248159189.16722608,66090005.879657544,62990813.12044557,0.0023943222038677356,-3617820.8500441485,89.37811279296875,2022-01-14,0,0,0,0,1,0,0,0,0,0,0,18.949996278265566,1
87.45299835205078,84.10293807983399,85.38105239868165,91.99108169555664,87.22518661561817,84.00507151075631,85.38105239868165,91.99108169555664,73.7188894504944,87.00607910160751,89.86898447937307,3.3979173031218863,4.2680992530118385,-0.8701819498899521,50.93198365009549,84.48079588574852,-22.070095648801132,58.776097251389935,16.76924015048451,3.1841815030839262,3.739610294755498,3.105345011603646,90.64298616259869,87.45299835205078,84.26301054150288,12.840461730957031,5.654909677228646,4.961301852495254,7.142857142857143,78.57142857142857,71.42857142857143,-0.5258859041148839,0.00037891695478808884,1.0351801972745538,0.9820631939354538,0.2102795311091073,0.12197928653624857,0.26632100991884583,0.23712440896842749,1.0,0.5144105031907104,1.7238954012623986,7.986301369863014,55261051.3484172,98320158.34930897,-38238723.85351921,-39066353.44262726,37232147.32622564,58258412.56302474,21015081.053162504,58258412.56302474,52163032.481080316,66355761.51591971,219981707.94819227,219981707.94819227,65445883.44034813,52163032.481080316,52163032.481080316,52163032.481080316,52163032.481080316,52163032.481080316,52163032.481080316,52163032.481080316,0.08980899460185997,0.08936162725639617,6531563.243771634,6498010.6928618485,6548580.113384918,6545702.780829098,2303941.8291386245,2303941.8291386245,427638445.5288565,179573252.46917358,248065193.05968297,248065193.05968297,248065193.05968297,302409141.34989935,302409141.34989935,248065193.05968297,248065193.05968297,66064972.74136823,62966953.87403134,0.0023934152982313865,-3616450.5156276254,89.41197967529297,2022-01-18,0,0,0,0,1,0,0,0,0,0,0,18.655244245719942,1
88.07505950927734,84.98934555053711,85.38105239868165,91.99108169555664,87.8018069462194,84.90506716469551,85.38105239868165,91.99108169555664,73.7188894504944,79.17576481871016,85.77474572072659,3.3979173031218863,4.2680992530118385,-0.8701819498899521,50.93198365009549,84.48079588574852,-22.070095648801132,58.776097251389935,11.067507842682245,3.1841815030839262,3.739610294755498,3.4861064526456715,90.96710242313442,88.07505950927734,85.18301659542026,8.86407470703125,5.654909677228646,4.961301852495254,7.142857142857143,78.57142857142857,71.42857142857143,-0.40048628188794266,-0.005110412156519528,1.039980543378715,0.9845476536360588,0.2102795311091073,0.12197928653624857,0.26632100991884583,0.23712440896842749,1.0,0.5144105031907104,1.7238954012623986,7.986301369863014,55544908.72519923,98825195.83145647,-38435143.27695935,-39267024.12004066,37423396.30564425,58557666.373115316,21123028.434456456,58557666.373115316,52430976.38015163,66696608.6756946,221111679.76440874,221111679.76440874,65782056.86342383,52430976.38015163,52430976.38015163,52430976.38015163,52430976.38015163,52430976.38015163,52430976.38015163,52430976.38015163,0.09027031310733652,0.08982064778675204,6565113.680533566,6531388.781489729,6582217.9600648945,6579325.847622491,2315776.4010101277,2315776.4010101277,429835079.94671476,180495659.68261462,249339420.26410016,249339420.26410016,249339420.26410016,303962515.08210117,303962515.08210117,249339420.26410016,249339420.26410016,66404326.21731468,63290393.87226708,0.0024057094651270257,-3635027.001806936,88.95504760742188,2022-01-19,0,0,0,0,1,0,0,0,0,0,0,18.666306560238006,1
88.32551879882813,85.8848258972168,85.38105239868165,91.99108169555664,87.72648335802647,85.3906615314128,85.38105239868165,91.99108169555664,73.7188894504944,60.08418695262018,75.42201029097927,3.3979173031218863,4.2680992530118385,-0.8701819498899521,50.93198365009549,84.48079588574852,-22.070095648801132,58.776097251389935,11.389831903220715,3.1841815030839262,3.739610294755498,4.0361009140112,90.74587305358385,88.32551879882813,85.9051645440724,8.954803466796875,5.654909677228646,4.961301852495254,7.142857142857143,78.57142857142857,71.42857142857143,-0.050314052970748466,-0.015504588698192934,1.0462881756604183,0.9976865445468324,0.2102795311091073,0.12197928653624857,0.26632100991884583,0.23712440896842749,1.0,0.5144105031907104,1.7238954012623986,7.986301369863014,56419672.54245675,100381570.79958253,-39040449.38730209,-39885431.32782866,38012768.64882383,59479877.40814758,21455690.084451776,59479877.40814758,53256699.60291809,67746998.01546162,224593916.05698884,224593916.05698884,66818043.13992651,53256699.60291809,53256699.60291809,53256699.60291809,53256699.60291809,53256699.60291809,53256699.60291809,53256699.60291809,0.0916919592220052,0.09123521222712598,6668506.125236742,6634250.1006208,6685879.776078559,6682942.116431595,2352247.023628029,2352247.023628029,436604452.4050549,183338243.74452248,253266208.66053241,253266208.66053241,253266208.66053241,308749549.86348677,308749549.86348677,253266208.66053241,253266208.66053241,67450112.46879013,64287139.52925147,0.0024435964226038748,-3692274.1945544546,87.57583618164062,2022-01-20,0,0,0,0,1,0,0,0,0,0,0,20.907695443925046,1
88.0936782836914,86.37618942260742,85.38105239868165,91.99108169555664,86.86679395906192,85.34643491863463,85.38105239868165,91.99108169555664,73.7188894504944,38.21785829156425,59.15927002096485,3.3979173031218863,4.2680992530118385,-0.8701819498899521,50.93198365009549,23.340042126286093,-36.17715481478052,58.776097251389935,6.12414778362409,3.1841815030839262,3.739610294755498,3.426870574491602,91.32827557047557,88.0936782836914,84.85908099690724,4.91363525390625,5.654909677228646,4.961301852495254,7.142857142857143,78.57142857142857,71.42857142857143,-0.5695792480735212,-0.02772935008546229,1.0310709307401318,0.9828108004031455,0.2102795311091073,0.12197928653624857,0.26632100991884583,0.23712440896842749,1.0,0.5144105031907104,1.7238954012623986,7.986301369863014,58028772.6955617,103244472.93395728,-40153890.67924012,-41022971.67083526,39096900.28405685,61176255.205663,22067610.583881892,61176255.205663,54775591.14594207,69679155.71802622,230999378.69844222,230999378.69844222,68723706.8668069,54775591.14594207,54775591.14594207,54775591.14594207,54775591.14594207,54775591.14594207,54775591.14594207,54775591.14594207,0.09430703192579648,0.09383725841682615,6858693.230967017,6823460.217794241,6876562.38174653,6873540.939468885,2419333.57119727,2419333.57119727,449056497.2247515,188567086.50069594,260489410.72405556,260489410.72405556,260489410.72405556,317555147.72622806,317555147.72622806,260489410.72405556,260489410.72405556,69373802.9371955,66120621.387575865,0.0025132882729913385,-3797578.5804899125,85.14741516113281,2022-01-21,0,0,0,0,1,0,0,0,0,0,0,22.78289694978032,1
87.53184051513672,86.78795166015625,85.38105239868165,91.99108169555664,86.76750395610638,85.56870565164566,85.38105239868165,91.99108169555664,75.41398249379965,35.26555856939914,44.52253460452784,3.3979173031218863,4.2680992530118385,-0.8701819498899521,50.93198365009549,5.451896928302658,-33.39444531036185,58.776097251389935,4.994005305977378,3.386459947608651,3.9118655899626793,6.016079726430078,90.65274677936289,87.53184051513672,84.41093425091056,4.117622375488281,5.654909677228646,4.961301852495254,0.0,71.42857142857143,71.42857142857143,0.6736990864042265,0.016694679296751946,1.0741165494395182,1.0491181406933314,0.2102795311091073,0.12197928653624857,0.26632100991884583,0.23712440896842749,1.0,0.5144105031907104,1.7238954012623986,7.986301369863014,57075908.70417481,101549142.56595847,-39494541.96712683,-40349352.17641826,38454907.92879942,60171707.84052754,21705248.42241337,60171707.84052754,53876146.163989335,68534986.10440582,227206243.3317981,227206243.3317981,67595226.24269374,53876146.163989335,53876146.163989335,53876146.163989335,53876146.163989335,53876146.163989335,53876146.163989335,53876146.163989335,0.09275845919743447,0.09229639962484451,6746069.759813417,6711415.291869169,6763645.489423679,6760673.660870652,2379606.798838294,2379606.798838294,441682745.4387428,185470712.43760994,256212033.00113285,256212033.00113285,256212033.00113285,312340719.5814982,312340719.5814982,256212033.00113285,256212033.00113285,68234647.38222234,65034884.84203687,0.0024720187133562862,-3735220.275881348,86.56892395019531,2022-01-24,0,0,0,0,1,0,0,0,0,0,0,21.68916559631726,1
87.74675903320312,87.59987869262696,85.38105239868165,91.99108169555664,88.00719339261259,86.46286321782372,85.38105239868165,91.99108169555664,79.3642817674844,53.106085693868046,42.196500851610466,3.3979173031218863,4.2680992530118385,-0.8701819498899521,50.93198365009549,77.82558233041641,-6.943266842826804,58.776097251389935,9.857395026160965,3.6486294133288966,4.03223298437947,7.0568324676920895,91.44969154637346,87.74675903320312,84.04382652003278,8.119270324707031,5.654909677228646,4.961301852495254,0.0,64.28571428571429,64.28571428571429,0.5623506595678514,0.04525467265463057,1.0839371606950428,1.0458679945369804,0.2102795311091073,0.12197928653624857,0.26632100991884583,0.23712440896842749,1.0,0.5144105031907104,1.7238954012623986,7.986301369863014,54604786.94557689,97152536.3364838,-37784611.73182096,-38602412.62920463,36789989.01878678,57566552.35772314,20765511.9754582,57566552.35772314,51543559.26212723,65567739.51590927,217369268.25188258,217369268.25188258,64668666.89150723,51543559.26212723,51543559.26212723,51543559.26212723,51543559.26212723,51543559.26212723,51543559.26212723,51543559.26212723,0.08874244872960584,0.08830039419047954,6453996.271244061,6420842.180809588,6470811.053392439,6467967.89121314,2276580.8765004734,2276580.8765004734,422559933.95083547,177440692.00529903,245119241.94553643,245119241.94553643,245119241.94553643,298817817.08590436,298817817.08590436,245119241.94553643,245119241.94553643,65280404.06547717,62219176.38202751,0.0023649917843257344,-3573502.586116185,90.486572265625,2022-01-25,0,0,0,0,1,0,0,0,0,0,0,13.38412088238232,1
88.15291137695313,88.11398544311524,85.38105239868165,91.99108169555664,89.00006537046569,87.2852170557052,85.38105239868165,91.99108169555664,79.80948194464523,76.17866786304413,54.85010404210376,3.3979173031218863,4.2680992530118385,-0.8701819498899521,50.93198365009549,127.71390759629894,-14.793871382950881,58.776097251389935,5.988797212047592,3.6194938229022684,3.97808608804794,3.240731147356101,92.65591689651306,88.15291137695313,83.6499058573932,5.1410675048828125,5.654909677228646,4.961301852495254,0.0,100.0,100.0,-0.036553347967951795,0.0055172502178704175,1.0361082477804662,0.9986997363051056,0.2102795311091073,0.12197928653624857,0.26632100991884583,0.23712440896842749,1.0,0.5144105031907104,1.7238954012623986,7.986301369863014,54305171.72504539,96619462.5854835,-37577288.429048814,-38390602.07156113,36588123.18815546,57250685.99792784,20651572.084873565,57250685.99792784,51260740.92807361,65207970.824669965,216176568.03479412,216176568.03479412,64313831.39125176,51260740.92807361,51260740.92807361,51260740.92807361,51260740.92807361,51260740.92807361,51260740.92807361,51260740.92807361,0.08825552093748522,0.08781589194153262,6418583.340908016,6385611.166211571,6435305.8607302625,6432478.298916994,2264089.32915591,2264089.32915591,420241357.231094,176467078.97537518,243774278.25571883,243774278.25571883,243774278.25571883,297178210.53906137,297178210.53906137,243774278.25571883,243774278.25571883,64922211.97730077,61877781.18032899,0.0023520151283464305,-3553894.8589314567,90.98580932617188,2022-01-26,0,0,0,0,1,0,0,0,0,0,0,9.581724901162968,1
89.21058959960938,88.76805419921875,85.38105239868165,91.99108169555664,90.28811934528441,88.2995825537446,85.38105239868165,91.99108169555664,81.4326234535163,88.55550277651291,72.61341877780835,3.3979173031218863,4.2680992530118385,-0.8701819498899521,50.93198365009549,140.94439741709152,-8.9565389278793,58.776097251389935,7.576945502001431,3.5876025631615365,3.8632772464340728,3.173016186532024,94.98060791299007,89.21058959960938,83.44057128622869,6.540687561035156,5.654909677228646,4.961301852495254,0.0,100.0,100.0,0.022663416067986185,0.020645175139522243,1.032761009552639,1.0007294778188238,0.2102795311091073,0.12197928653624857,0.26632100991884583,0.23712440896842749,1.0,0.5144105031907104,1.7238954012623986,7.986301369863014,53206709.880955316,94665085.31946532,-36817191.071237855,-37614053.35239363,35848034.24280515,56092643.54784381,20233840.895833846,56092643.54784381,50223860.53122356,63888971.81212465,211803840.64936453,211803840.64936453,63012918.64967672,50223860.53122356,50223860.53122356,50223860.53122356,50223860.53122356,50223860.53122356,50223860.53122356,50223860.53122356,0.08647032591460659,0.08603958954641429,6288750.975607752,6256445.747993329,6305135.2394337775,6302364.872334476,2218292.2961904057,2218292.2961904057,411740894.35503083,172897578.19239396,238843316.1626369,238843316.1626369,238843316.1626369,291167016.48879796,291167016.48879796,238843316.1626369,238843316.1626369,63608993.17279965,60626143.82306789,0.0023044395698288683,-3482008.19001142,92.86422729492188,2022-01-27,0,0,0,0,1,0,0,0,0,0,0,3.3431263812552015,1
90.74549255371093,89.41958541870117,85.38105239868165,91.99108169555664,91.13272287406981,89.12182753154387,85.38105239868165,91.99108169555664,81.27418256228505,87.59152448239104,84.10856504064934,3.3979173031218863,4.2680992530118385,-0.8701819498899521,50.93198365009549,121.7694936458647,-9.905382029282457,58.776097251389935,7.5490296870305285,3.5446941813977006,3.8188111193208503,2.986885218467833,95.33845641201985,90.74549255371093,86.15252869540201,6.515312194824219,5.654909677228646,4.961301852495254,0.0,92.85714285714286,92.85714285714286,-0.014165175368071936,-0.0004554753160969094,1.0328616536908244,0.9995443913279469,0.2102795311091073,0.12197928653624857,0.26632100991884583,0.23712440896842749,1.0,0.5144105031907104,1.7238954012623986,7.986301369863014,53230955.26713175,94708222.57708059,-36833968.03447145,-37631193.432117224,35864369.57787525,56118204.00455157,20243061.110491917,56118204.00455157,50246746.68405232,63918084.92205883,211900356.03100878,211900356.03100878,63041632.55719297,50246746.68405232,50246746.68405232,50246746.68405232,50246746.68405232,50246746.68405232,50246746.68405232,50246746.68405232,0.08650972896075045,0.08607879631337435,6291616.651690942,6259296.703137735,6308008.381545304,6305236.752037175,2219303.133986873,2219303.133986873,411928517.62680626,172976364.6567633,238952152.97004297,238952152.97004297,238952152.97004297,291299696.3100537,291299696.3100537,238952152.97004297,238952152.97004297,63637978.701264374,60653770.11818494,0.0023054896634620917,-3483594.8814912206,92.82192993164062,2022-01-28,0,0,0,0,1,0,0,0,0,0,0,3.223693273483038,1
92.29732208251953,89.91458129882812,86.3667366027832,91.99108169555664,92.19783911412597,90.06841736112467,86.23314946492513,91.99108169555664,82.57433819394515,89.10393352081871,88.41698692657421,3.3979173031218863,4.2680992530118385,-0.8701819498899521,50.93198365009549,141.26255185504897,-9.95942728506238,58.776097251389935,5.538222554257088,3.6251238007564877,3.843101782415656,4.6707088524207165,95.08578676459868,92.29732208251953,89.50885740044038,4.949958801269531,5.654909677228646,4.961301852495254,0.0,100.0,100.0,0.17210238321974405,0.016226140349665963,1.0512629701655105,1.008594993107108,0.2102795311091073,0.12197928653624857,0.26632100991884583,0.23712440896842749,1.0,0.5144105031907104,1.7238954012623986,7.986301369863014,52381013.58897922,93196011.02220528,-36245837.98031167,-37030334.034872375,35291721.15719729,55222161.46225314,19919839.00702124,55222161.46225314,49444454.03339386,62897501.239306554,208516931.04262948,208516931.04262948,62035043.23899937,49444454.03339386,49444454.03339386,49444454.03339386,49444454.03339386,49444454.03339386,49444454.03339386,49444454.03339386,0.08512842321787151,0.08470437129648735,6191158.052208837,6159354.158105024,6207288.054384064,6204560.679641297,2183867.3951284597,2183867.3951284597,405351231.65112513,170214441.2436046,235136790.40752056,235136790.40752056,235136790.40752056,286648497.55766225,286648497.55766225,235136790.40752056,235136790.40752056,62621867.49040685,59685307.934821494,0.002268677779405293,-3427972.124681398,94.32807159423828,2022-01-31,0,0,0,0,1,0,0,0,0,0,0,2.6860336843886508,1
93.35330963134766,90.55003433227539,87.32648620605468,91.99108169555664,93.38739607933918,91.10443420633212,87.14108856443376,91.99108169555664,83.73578118954694,85.84250136724187,87.51265312348386,3.3979173031218863,4.2680992530118385,-0.8701819498899521,50.93198365009549,148.89062629011673,-9.210523628481853,58.776097251389935,7.107023418505731,3.665962849125191,3.828021767475249,4.196870477918338,96.56582522667377,93.35330963134766,90.14079403602155,6.354530334472656,5.654909677228646,4.961301852495254,57.142857142857146,100.0,42.85714285714286,0.6048388213198501,0.015249314347429266,1.045103201140448,1.027228172006631,0.2102795311091073,0.12197928653624857,0.26632100991884583,0.23712440896842749,1.0,0.5144105031907104,1.7238954012623986,7.986301369863014,51594236.85269673,91796182.18418477,-35701415.86710587,-36474128.58256824,34761630.13208408,54392709.9303172,19620637.734510656,54392709.9303172,48701785.20157409,61952764.065381445,205384951.3571528,205384951.3571528,61103260.41330407,48701785.20157409,48701785.20157409,48701785.20157409,48701785.20157409,48701785.20157409,48701785.20157409,48701785.20157409,0.08384977169138934,0.08343208914249077,6098165.213919225,6066839.022751831,6114052.939177719,6111366.530327968,2151065.1268276717,2151065.1268276717,399262748.49214983,167657775.12788883,231604973.36426097,231604973.36426097,231604973.36426097,282342960.9917156,282342960.9917156,231604973.36426097,231604973.36426097,61681270.408597365,58788818.75747472,0.002234601636607387,-3376483.072913762,95.76651000976562,2022-02-01,0,0,0,0,1,0,0,0,0,0,0,5.590740762575297,1
94.26544952392578,91.20918045043945,88.09926300048828,91.99108169555664,94.10710031591363,91.91208413046492,87.94160477630317,91.99108169555664,82.82650368222504,80.3520696600509,85.09950151603715,3.3979173031218863,4.2680992530118385,-0.8701819498899521,50.93198365009549,107.18999046940965,-10.578968772543362,58.776097251389935,7.409878763406641,3.64586361099856,3.815799925298697,3.3845735153523577,96.78662218679493,94.26544952392578,91.74427686105663,6.591461181640625,5.654909677228646,4.961301852495254,50.0,92.85714285714286,42.85714285714286,0.09499931335449315,-0.0022972667656020462,1.036609920572879,1.0033765527841358,0.2102795311091073,0.12197928653624857,0.26632100991884583,0.23712440896842749,1.0,0.5144105031907104,1.7238954012623986,7.986301369863014,51713035.4904774,92007548.06654257,-35783620.38897839,-36558112.31901185,34841670.7443431,54517952.21005804,19665815.358552326,54517952.21005804,48813923.80643323,62095413.795790814,205857861.78146124,205857861.78146124,61243954.11368349,48813923.80643323,48813923.80643323,48813923.80643323,48813923.80643323,48813923.80643323,48813923.80643323,48813923.80643323,0.08404284051579305,0.08362419622928849,6112206.582966768,6080808.261478925,6128130.890607972,6125438.296150461,2156018.075498552,2156018.075498552,400182073.4697215,168043816.60293567,232138256.86678582,232138256.86678582,232138256.86678582,282993071.5699288,282993071.5699288,232138256.86678582,232138256.86678582,61823295.00956284,58924183.325518675,0.0022397469327994665,-3384257.615459994,95.5465087890625,2022-02-02,0,0,0,0,1,0,0,0,0,0,0,4.926213752863423,1
94.6089874267578,91.9097885131836,88.89730720520019,91.99108169555664,94.2653724803031,92.39750825384985,88.57401544609164,91.99108169555664,78.7868658053048,70.51331634763527,78.902629124976,3.3979173031218863,4.2680992530118385,-0.8701819498899521,50.93198365009549,87.36149502923561,-16.57889553106875,58.776097251389935,8.00001568116362,3.5679702755838965,3.7723598716930304,2.555356915193272,96.70508396062402,94.6089874267578,92.51289089289159,7.0060806274414205,5.654909677228646,4.961301852495254,42.85714285714286,85.71428571428572,42.85714285714286,-0.15562932310691727,-0.010095523030673736,1.0274670700889839,0.9958129067197943,0.2102795311091073,0.12197928653624857,0.26632100991884583,0.23712440896842749,1.0,0.5144105031907104,1.7238954012623986,7.986301369863014,52240429.95421245,92945885.39313534,-36148558.99887723,-36930949.57095003,35197002.897707604,55073952.56658423,19866376.823308077,55073952.56658423,49311751.73172372,62728692.75821544,207957299.48783743,207957299.48783743,61868549.47983151,49311751.73172372,49311751.73172372,49311751.73172372,49311751.73172372,49311751.73172372,49311751.73172372,49311751.73172372,0.08489994991546772,0.08447703609272567,6174541.812034016,6142823.275328361,6190628.523440714,6187908.468606983,2178006.187121588,2178006.187121588,404263323.1591312,169757608.44866124,234505714.71047,234505714.71047,234505714.71047,285879171.3280612,285879171.3280612,234505714.71047,234505714.71047,62453798.773433104,59525120.550944366,0.0022625889516699987,-3418771.9059733683,94.58191680908205,2022-02-03,0,0,0,0,1,0,0,0,0,0,0,5.587785020635136,1
95.28590240478516,93.01569747924805,89.69594345092773,91.99108169555664,94.91241659412785,93.09005308438212,89.30091919615694,91.99108169555664,80.51091202169403,66.43808081675338,72.43448894147984,3.3979173031218863,4.2680992530118385,-0.8701819498899521,50.93198365009549,120.82210163285863,-13.737868235095354,58.776097251389935,12.98816838974657,3.600199216922174,3.7421577923359206,4.019175454319779,96.71683042484526,95.28590240478516,93.85497438472507,11.059089660644531,5.654909677228646,4.961301852495254,35.714285714285715,100.0,64.28571428571429,0.10833320970883042,0.01717651817074728,1.031878141011181,1.0034418797815856,0.2102795311091073,0.12197928653624857,0.26632100991884583,0.23712440896842749,1.0,0.5144105031907104,1.7238954012623986,7.986301369863014,51358273.6339212,91376357.72430708,-35538137.53377385,-36307316.292913735,34602649.85373885,54143948.0589143,19530903.897619497,54143948.0589143,48479050.44092461,61669426.729418024,204445635.31787008,204445635.31787008,60823808.23251173,48479050.44092461,48479050.44092461,48479050.44092461,48479050.44092461,48479050.44092461,48479050.44092461,48479050.44092461,0.08346628967423339,0.08305051737199562,6070275.61267152,6039092.690003687,6086090.67634958,6083416.553633277,2141227.356524543,2141227.356524543,397436743.70908946,166891002.118243,230545741.59084642,230545741.59084642,230545741.59084642,281051682.0051802,281051682.0051802,230545741.59084642,230545741.59084642,61399174.73296347,58519951.53996688,0.002224381816972098,-3361040.92544484,96.20650482177734,2022-02-04,0,0,0,0,1,0,0,0,0,0,0,7.776341261155154,1
95.82912750244141,94.06322479248047,90.42558822631835,91.99108169555664,95.6230100902584,93.80898835677074,90.03837423295337,91.99108169555664,81.35248349670438,66.92309270441974,67.95816328960278,3.3979173031218863,4.2680992530118385,-0.8701819498899521,50.93198365009549,98.94548230410977,-8.931985727072153,58.776097251389935,12.100500565712036,3.6379834034579543,3.748790255191117,4.129177828423096,97.44359621424874,95.82912750244141,94.21465879063408,10.475273132324205,5.654909677228646,4.961301852495254,28.571428571428573,92.85714285714286,64.28571428571429,0.2766407506828149,0.008707230995388615,1.0438021460641747,1.0119111182912954,0.2102795311091073,0.12197928653624857,0.26632100991884583,0.23712440896842749,1.0,0.5144105031907104,1.7238954012623986,7.986301369863014,50914945.44283285,90587590.64722598,-35231369.8581351,-35993909.012713045,34303957.372837596,53676573.73238541,19362311.77637784,53676573.73238541,48060575.90475054,61137091.94744531,202680846.37018403,202680846.37018403,60298772.88823539,48060575.90475054,48060575.90475054,48060575.90475054,48060575.90475054,48060575.90475054,48060575.90475054,48060575.90475054,0.08274580285487709,0.08233361952807822,6017876.571263789,5986962.821753873,6033555.118211901,6030904.078708928,2122744.1330142817,2122744.1330142817,394006042.08705866,165450387.37707433,228555654.70998433,228555654.70998433,228555654.70998433,278625624.3328795,278625624.3328795,228555654.70998433,228555654.70998433,60869172.785026036,58014803.24694373,0.0022051807983740597,-3332028.186343204,97.04419708251952,2022-02-07,0,0,0,0,1,0,0,0,0,0,0,10.393971529532333,1
95.54989776611328,94.45160369873047,91.0257411956787,91.99108169555664,95.2054605028806,93.91105616974424,90.45094443249353,91.99108169555664,70.83773132395163,57.97908079393636,63.78008477170314,3.3979173031218863,4.2680992530118385,-0.8701819498899521,50.93198365009549,48.31057871796201,-24.271915536124872,58.776097251389935,4.292116460218054,3.687575721046366,3.907557064685484,4.332275849695719,97.5483708031005,95.54989776611328,93.55142472912605,3.8837890625,5.616223714222446,4.970035552978516,21.42857142857143,85.71428571428572,64.28571428571429,-0.4628718620817276,-0.02755276291400377,1.036871414865197,0.9835096761779559,0.2102795311091073,0.12197928653624857,0.26632100991884583,0.23712440896842749,1.0,0.5144105031907104,1.7238954012623986,7.986301369863014,52357540.33854106,93154247.54424499,-36229595.30813032,-37013739.81026592,35275906.048776194,55197415.0219511,19910912.425848745,55197415.0219511,49422296.72919561,62869315.28608867,208423489.35817933,208423489.35817933,62007243.7749165,49422296.72919561,49422296.72919561,49422296.72919561,49422296.72919561,49422296.72919561,49422296.72919561,49422296.72919561,0.0850902750290396,0.08466641313599334,6188383.638475608,6156593.9964971375,6204506.412390924,6201780.259853418,2182888.7491883137,2182888.7491883137,405169583.5629338,170138163.8687746,235031419.6941592,235031419.6941592,235031419.6941592,286520043.1519554,286520043.1519554,235031419.6941592,235031419.6941592,62593805.05560859,59658561.44626314,0.0022676611277975688,-3426435.964102126,94.370361328125,2022-02-08,0,0,0,0,1,0,0,0,0,0,0,12.293513171953284,1
95.6158950805664,94.9406723022461,91.52732887268067,91.99108169555664,95.42913878902978,94.26840875003222,90.96766356857302,91.99108169555664,72.95795344282074,53.21671514072529,59.37296287969377,3.3979173031218863,4.2680992530118385,-0.8701819498899521,50.93198365009549,65.9526824322125,-15.631149058831188,58.776097251389935,5.375218477887911,3.6127462386364475,3.7681250498583116,2.639962967307511,97.63128474530082,95.6158950805664,93.60050541583199,4.89068603515625,5.606621625371631,5.003167372483475,14.285714285714286,78.57142857142857,64.28571428571429,0.5929491568527776,0.01595982056237233,1.0280777091438962,1.0165978690948942,0.2102795311091073,0.12197928653624857,0.26632100991884583,0.23712440896842749,1.0,0.5144105031907104,1.7238954012623986,7.986301369863014,51535050.18491693,91690877.5906911,-35660460.75333556,-36432287.046329655,34721753.09969408,54330312.97576043,19598129.79102589,54330312.97576043,48645916.62870928,61881694.54505406,205149342.66082394,205149342.66082394,61033165.40667242,48645916.62870928,48645916.62870928,48645916.62870928,48645916.62870928,48645916.62870928,48645916.62870928,48645916.62870928,0.08375358287490041,0.08333637947328199,6091169.663629121,6059879.408507738,6107039.163179203,6104355.836061013,2148597.51833493,2148597.51833493,398804731.60706,167465445.40963897,231339286.19742107,231339286.19742107,231339286.19742107,282019069.4090202,282019069.4090202,231339286.19742107,231339286.19742107,61610512.334002085,58721378.777794436,0.002232038198658616,-3372609.718173169,95.87649536132812,2022-02-09,0,0,0,0,1,0,0,0,0,0,0,18.41036693413494,1
95.76481628417969,95.18690185546875,91.97747802734375,91.99108169555664,95.39493346840267,94.46079312768971,91.38279302177068,91.99108169555664,70.93002680249516,43.118751210809556,51.43818238182371,3.3979173031218863,4.2680992530118385,-0.8701819498899521,50.460529257239514,69.4203546176151,-18.786369067149792,58.776097251389935,2.651500587418565,3.572877102143407,3.7480409398987042,3.0545783277338785,97.54941304235764,95.76481628417969,93.98021952600173,2.4622955322265625,5.366696516721877,4.820513896453065,7.142857142857143,71.42857142857143,64.28571428571429,0.07202274024135163,-0.005736260301411833,1.0322753746946793,1.0023131862339931,0.2102795311091073,0.12197928653624857,0.26632100991884583,0.23712440896842749,1.0,0.5144105031907104,1.7238954012623986,7.986301369863014,51832374.175226204,92219874.79749313,-35866198.60455341,-36642477.83729309,34922075.21338353,54643763.82893206,19711198.355646636,54643763.82893206,48926572.18240336,62238711.997898616,206332922.0102255,206332922.0102255,61385287.39384046,48926572.18240336,48926572.18240336,48926572.18240336,48926572.18240336,48926572.18240336,48926572.18240336,48926572.18240336,0.08423678701215673,0.08381717661608123,6126311.782702308,6094841.002996646,6142272.839026148,6139574.03084171,2160993.5397888278,2160993.5397888278,401105577.608571,168431612.98470592,232673964.62386507,232673964.62386507,232673964.62386507,283646137.4871365,283646137.4871365,232673964.62386507,232673964.62386507,61965965.24044954,59060163.2476267,0.002244915619003928,-3392067.500314935,95.32652282714844,2022-02-10,0,0,0,0,1,0,0,0,0,0,0,6.2312249462529445,1
96.28096008300781,95.78343124389649,92.60150833129883,91.99108169555664,96.52569691757444,95.24741688918576,92.08797690692757,91.99108169555664,75.53772656713757,65.4065608945875,53.91400908204076,3.3979173031218863,4.2680992530118385,-0.8701819498899521,50.27000221713807,129.2144275306249,-0.7986280732881931,59.23973813070733,6.4265997148200915,3.5733259181745445,3.6171943902717114,3.5791605265793294,99.32580075600778,96.28096008300781,93.23611941000784,5.9652938842773295,5.182222788437999,4.6950090359418795,0.0,100.0,100.0,0.8031901402306144,0.036303652814911436,1.0332361197517568,1.0265540891051268,0.2102795311091073,0.12197928653624857,0.26632100991884583,0.23712440896842749,1.0,0.5144105031907104,1.7238954012623986,7.986301369863014,50016589.282913305,88989240.31291051,-34609738.667937785,-35358823.38903383,33698689.68282097,52729490.70526116,19020678.2559389,52729490.70526116,47212582.96205377,60058373.6522009,199104694.3140299,199104694.3140299,59234846.1062543,47212582.96205377,47212582.96205377,47212582.96205377,47212582.96205377,47212582.96205377,47212582.96205377,47212582.96205377,0.08128581500542276,0.08088090434537085,5911695.636758018,5881327.337254125,5927097.547462941,5924493.283570685,2085289.8992673834,2085289.8992673834,387054099.94362944,162531138.9448403,224522960.99878913,224522960.99878913,224522960.99878913,273709483.428596,273709483.428596,224522960.99878913,224522960.99878913,59795181.72316715,56991175.402307615,0.002166272031277767,-3273237.039260706,98.78722381591795,2022-02-11,0,0,0,0,1,0,0,0,0,0,0,3.9178068925048706,1
96.06434478759766,95.94673614501953,92.93065872192383,91.99108169555664,96.33750481353921,95.3771812012372,92.45684773536006,91.99108169555664,66.29632912534686,64.98114239143011,57.83548483227569,3.3979173031218863,4.2680992530118385,-0.8701819498899521,49.74413997465671,74.83942977719497,-32.16258514794063,53.991206922818144,1.7312439273170055,3.580996195671994,3.731715691811039,3.680709803138839,99.01378189292772,96.06434478759766,93.1149076822676,1.633049011230483,4.7675770627521015,4.348185759324295,0.0,92.85714285714286,92.85714285714286,-0.6419756574944258,-0.02860798290794575,1.0360319872542958,0.9775881525192293,0.2102795311091073,0.12197928653624857,0.26632100991884583,0.23712440896842749,1.0,0.5144105031907104,1.7238954012623986,7.986301369863014,51489602.964457415,91610018.1462346,-35629012.85883018,-36400158.50128511,34691133.02341201,54282400.69659151,19580846.786119305,54282400.69659151,48603017.248781495,61827122.92817766,204968427.5871105,204968427.5871105,60979342.082282,48603017.248781495,48603017.248781495,48603017.248781495,48603017.248781495,48603017.248781495,48603017.248781495,48603017.248781495,0.08367972309342096,0.0832628876110129,6085798.0431578895,6054535.381977283,6101653.547870631,6098972.587098427,2146702.734401584,2146702.734401584,398453037.6338785,167317762.63860115,231135274.99527737,231135274.99527737,231135274.99527737,281770365.22079825,281770365.22079825,231135274.99527737,231135274.99527737,61556179.864612415,58669594.1489365,0.002230069830883199,-3369635.514464514,95.96112060546876,2022-02-14,0,0,0,0,1,0,0,0,0,0,0,8.526146351640046,1
95.95773468017578,95.75381622314453,93.15192527770996,91.99108169555664,95.50410680603134,95.0972047630151,92.58832040732726,91.99108169555664,60.32359425484728,59.91433202721034,63.43401177107595,3.3979173031218863,4.2680992530118385,-0.8701819498899521,47.60020848659973,-88.52876431230122,-63.25219343731499,55.17574121150063,-2.014482117551608,3.626195409465042,3.8643428492328753,4.213785188774665,99.17111245863002,95.95773468017578,92.74435690172153,-1.92919921875,4.359259886869912,3.994877399542389,0.0,85.71428571428572,85.71428571428572,0.45289820018299515,-0.022131982213764445,1.0254542297192883,1.0113999086420895,0.2102795311091073,0.12197928653624857,0.26632100991884583,0.23712440896842749,1.0,0.5144105031907104,1.7238954012623986,7.986301369863014,52654961.63891636,93683417.8845808,-36435400.494526416,-37223999.39379374,35476293.72514725,55510968.46328989,20024017.996260643,55510968.46328989,49703044.13760492,63226449.5858512,209607456.0768763,209607456.0768763,62359481.006783724,49703044.13760492,49703044.13760492,49703044.13760492,49703044.13760492,49703044.13760492,49703044.13760492,49703044.13760492,0.08557363731238582,0.0851473676371062,6223537.259082606,6191567.033436634,6239751.619736957,6237009.981066462,2195288.827690097,2195288.827690097,407471182.5997988,171104647.6572437,236366534.94255513,236366534.94255513,236366534.94255513,288147643.7471482,288147643.7471482,236366534.94255513,236366534.94255513,62949374.296919435,59997456.795608,0.0022805427627460234,-3445900.114509241,93.83731079101562,2022-02-15,0,0,0,0,1,0,0,0,0,0,0,10.268699950989655,1
95.6971221923828,95.65650863647461,93.43284454345704,91.99108169555664,95.19388217814199,95.00197351926022,92.7773787420926,91.99108169555664,61.61442913920627,40.378434316684604,55.09130291177499,3.3979173031218863,4.2680992530118385,-0.8701819498899521,46.30148077054663,-7.5397136078428595,-54.06554844044936,51.29418626641012,-1.0184316298227802,3.574486576665577,3.7795884808368174,2.902271750272533,99.10033750965151,95.6971221923828,92.2939068751141,-0.9730758666992188,3.849563059112091,3.5458576006766975,7.142857142857143,78.57142857142857,71.42857142857143,-0.09038051323800694,0.007844663547392772,1.0309343469529175,0.9972340722437211,0.2102795311091073,0.12197928653624857,0.26632100991884583,0.23712440896842749,1.0,0.5144105031907104,1.7238954012623986,7.986301369863014,52245116.27970763,92954223.27765833,-36151801.77298531,-36934262.530867994,35200160.31069555,55078893.07852602,19868158.97380503,55078893.07852602,49316175.33466028,62734319.95294584,207975954.6864136,207975954.6864136,61874099.513800055,49316175.33466028,49316175.33466028,49316175.33466028,49316175.33466028,49316175.33466028,49316175.33466028,49316175.33466028,0.08490756602429717,0.08448461426327951,6175095.710857976,6143374.32878165,6191183.865353214,6188463.566511877,2178201.5692409985,2178201.5692409985,404299588.35679036,169772836.87249258,234526751.48429778,234526751.48429778,234526751.48429778,285904816.6539192,285904816.6539192,234526751.48429778,234526751.48429778,62459401.30828436,59530460.36323699,0.0022627919214445323,-3419078.593302688,94.57343292236328,2022-02-16,0,0,0,0,1,0,0,0,0,0,0,12.833172890874092,1
95.68696594238281,95.72589111328125,93.81783981323242,91.99108169555664,95.22116864447747,95.05174952978535,93.01531805971696,91.99108169555664,62.856050788288,39.32229016492104,46.5383521696053,3.3979173031218863,4.2680992530118385,-0.8701819498899521,45.095519319925906,-6.257137008183487,-46.5797601993486,52.00358066260203,0.7335702124402044,3.495647326594327,3.668979394680195,2.470737075668083,99.09484447377704,95.68696594238281,92.27908741098858,0.693824768066392,3.3979826476710806,3.142229471451188,0.0,71.42857142857143,71.42857142857143,0.3732866511640002,0.007426067057983321,1.0262731526451427,1.0097748750516475,0.2102795311091073,0.12197928653624857,0.26632100991884583,0.23712440896842749,1.0,0.5144105031907104,1.7238954012623986,7.986301369863014,51860000.438821904,92269027.29360116,-35885315.01727021,-36662008.00097246,34940688.41547017,54672888.541959785,19721704.2753585,54672888.541959785,48952649.675504014,62271884.76088451,206442895.897832,206442895.897832,61418005.28796406,48952649.675504014,48952649.675504014,48952649.675504014,48952649.675504014,48952649.675504014,48952649.675504014,48952649.675504014,0.08428168458282531,0.08386185053758086,6129577.060569113,6098089.507175779,6145546.624015314,6142846.377386514,2162145.3330089683,2162145.3330089683,401319363.84917915,168521385.7611262,232797978.088053,232797978.088053,232797978.088053,283797318.7341237,283797318.7341237,232797978.088053,232797978.088053,61998992.631475605,59091641.86815772,0.00224611214205786,-3393875.4466494266,95.27574157714844,2022-02-17,0,0,0,0,1,0,0,0,0,0,0,13.875964907700874,1
94.8188262939453,95.54989318847656,94.28279533386231,91.99108169555664,94.96295428756181,94.94170881050265,93.15162353724206,91.99108169555664,60.37298481544017,42.84869131409391,40.84980526523315,3.1273751137653676,4.039954425162544,-0.9125793113971765,43.698103283182036,-69.30468250519068,-62.293113148745675,50.143650111456765,-1.8293765596278821,3.385572201872612,3.5846445184790166,1.9545955804903201,96.2819206274048,94.8188262939453,93.35573196048581,-1.7599792480468608,2.9510351150000282,2.7381416712051703,0.0,64.28571428571429,64.28571428571429,0.45454575479644155,-0.008703327727410115,1.020914488472741,1.0094962743479774,0.2102795311091073,0.12197928653624857,0.26632100991884583,0.23712440896842749,1.0,0.5144105031907104,1.7238954012623986,7.986301369863014,52315317.794753246,93079125.42677106,-36200378.77762829,-36983890.924321614,35247458.59921748,55152902.32602098,19894855.72482116,55152902.32602098,49382441.245644435,62818615.761236794,208255410.99069047,208255410.99069047,61957239.447965324,49382441.245644435,49382441.245644435,49382441.245644435,49382441.245644435,49382441.245644435,49382441.245644435,49382441.245644435,0.08502165591820857,0.08459813583891489,6183393.157687897,6151629.1517408695,6199502.929760054,6196778.975666061,2181128.4083625115,2181128.4083625115,404842843.7968397,170000959.82848778,234841883.96835196,234841883.96835196,234841883.96835196,286288985.60055315,286288985.60055315,234841883.96835196,234841883.96835196,62543327.7096959,59610451.16058709,0.00226583242422125,-3423672.7929983083,94.44652557373048,2022-02-18,0,0,0,0,1,0,0,0,0,0,0,15.839415734094695,1
94.16221466064454,95.1132797241211,94.58825225830078,91.99108169555664,94.20132367136283,94.53013674295032,93.10652248026328,91.99108169555664,55.350954805876086,35.37438976154039,39.18179041351841,2.738698275299427,3.7797031951899207,-1.0410049198904936,43.27708719440232,-66.43099184407035,-82.9431597426588,44.45162705657279,-4.499119756580628,3.6858817186415536,3.9770811146046254,7.5899054366377925,95.9053487781378,94.16221466064454,92.41908054315127,-4.366134643554673,2.5093088190078197,2.334431574894836,100.0,100.0,0.0,-0.8182834970349957,-0.0187244911765978,1.0830555668583624,0.9371951416549461,0.2102795311091073,0.12197928653624857,0.26632100991884583,0.23712440896842749,1.0,0.5144105031907104,1.7238954012623986,7.986301369863014,53313587.595273726,94855241.56042325,-36891146.72905098,-37689609.68838112,35920043.12986566,56205318.31284777,20274485.142991163,56205318.31284777,50324746.51778115,64017307.26629408,212229296.58195487,212229296.58195487,63139494.352870494,50324746.51778115,50324746.51778115,50324746.51778115,50324746.51778115,50324746.51778115,50324746.51778115,50324746.51778115,0.08664402112731188,0.08621241952767397,6301383.354713592,6269013.234740748,6317800.530040299,6315024.598031907,2222748.2381352736,2222748.2381352736,412567969.09388506,173244882.09465998,239323086.9992251,239323086.9992251,239323086.9992251,291751891.3152411,291751891.3152411,239323086.9992251,239323086.9992251,63736766.22652943,60747925.149036855,0.0023090685580628573,-3489002.5912329773,92.67806243896484,2022-02-22,0,0,0,0,1,0,0,0,0,0,0,13.56578008362052,1
94.06575164794921,95.0117431640625,94.73167343139649,91.99108169555664,93.9192143567549,94.31647474014827,93.13018659905146,91.99108169555664,56.83122476883202,27.602694685070457,35.27525858690155,2.4569695243044123,3.515156461012819,-1.058186936708407,42.88614368339258,-120.10851735601547,-74.02429646793941,39.76945361622704,-1.0759369639960603,3.5839764252632915,3.839083701233617,2.259207611345886,95.91997062247202,94.06575164794921,92.2115326734264,-1.0153656005859375,2.0860368704555396,1.9438487810966194,92.85714285714286,92.85714285714286,0.0,-0.011235473464333713,0.007304137254919629,1.024522463865658,0.9997281734402776,0.2102795311091073,0.12197928653624857,0.26632100991884583,0.23712440896842749,1.0,0.5144105031907104,1.7238954012623986,7.986301369863014,52927001.51174063,94167429.72874153,-36623642.61660417,-37416315.78233354,35659580.65828467,55797763.787625365,20127471.329803813,55797763.787625365,49959833.040023945,63553106.652328916,210690385.0909586,210690385.0909586,62681658.912805304,49959833.040023945,49959833.040023945,49959833.040023945,49959833.040023945,49959833.040023945,49959833.040023945,49959833.040023945,0.0860157502811733,0.08558727829969796,6255690.929539876,6223555.530929226,6271989.0610768385,6269233.257833583,2206630.70459797,2206630.70459797,409576367.09227175,171988653.36419907,237587713.7280727,237587713.7280727,237587713.7280727,289636347.6777889,289636347.6777889,237587713.7280727,237587713.7280727,63274599.864369944,60307431.39265326,0.0022923251008930366,-3463703.2274493785,93.35499572753906,2022-02-23,0,0,0,0,1,0,0,0,0,0,0,11.932903168019289,1
93.78314056396485,94.74013137817383,94.84040184020996,91.99108169555664,93.6662687386504,94.10627524238338,93.13306192318383,91.99108169555664,56.2537900954354,26.275665224164754,29.750916556925162,2.192717117114725,3.2506685922332004,-1.0579514751184753,41.480368639694234,-122.81171939326713,-64.20554811690764,43.375772214532475,-2.8329340248102852,3.7462150116168913,4.021253575876414,5.855316634213693,95.67211424294287,93.78314056396485,91.89416688498683,-2.7161178588867188,1.5815491818324507,1.4760280022254335,100.0,85.71428571428572,-14.285714285714286,-0.4190750138640958,-0.0020847114134701084,1.0651172110373013,0.9743362696824877,0.2102795311091073,0.12197928653624857,0.26632100991884583,0.23712440896842749,1.0,0.5144105031907104,1.7238954012623986,7.986301369863014,53037569.538299836,94364151.75292327,-36700151.84202533,-37494480.95472199,35734075.89415102,55914329.027525574,20169518.956175957,55914329.027525574,50064202.45428667,63685873.3193145,211130531.31933203,211130531.31933203,62812605.06749931,50064202.45428667,50064202.45428667,50064202.45428667,50064202.45428667,50064202.45428667,50064202.45428667,50064202.45428667,0.08619544290478601,0.08576607581684188,6268759.483984438,6236556.952388627,6285091.663402239,6282330.103102709,2211240.502912319,2211240.502912319,410431999.365803,172347949.10077763,238084050.26502538,238084050.26502538,238084050.26502538,290241417.27303976,290241417.27303976,238084050.26502538,238084050.26502538,63406784.71215081,60433417.62813764,0.0022971139205011466,-3470939.1338772327,93.1603775024414,2022-02-24,0,0,0,0,1,0,0,0,0,0,0,12.48932392749746,1
92.88284301757812,94.28490447998047,94.73590316772462,91.99108169555664,92.70226377417188,93.50045317017091,92.90841353480583,91.99108169555664,49.599695431220056,24.876629150588897,26.251663019941333,1.7703474793712388,2.954604369660808,-1.1842568902895692,40.01635589504732,-154.64685797603107,-87.14026796338638,39.710936197589675,-4.77544847637843,3.8654366900579076,4.258296296931417,5.4153185097911205,95.28836002502776,92.88284301757812,90.4773260101285,-4.552268981933594,1.1845900694254663,1.1063829079652407,100.0,78.57142857142857,-21.42857142857143,-0.6187497094274218,-0.02561307415444969,1.0604629345124046,0.9644013020449509,0.2102795311091073,0.12197928653624857,0.26632100991884583,0.23712440896842749,1.0,0.5144105031907104,1.7238954012623986,7.986301369863014,54431733.56649369,96844640.71707064,-37664864.81761626,-38480073.942068905,36673394.26084953,57384112.557754636,20699701.957385477,57384112.557754636,51380207.519556075,65359942.36996703,216680382.01160988,216680382.01160988,64463719.08468702,51380207.519556075,51380207.519556075,51380207.519556075,51380207.519556075,51380207.519556075,51380207.519556075,51380207.519556075,0.08846120634263192,0.08802055276184671,6433542.279464141,6400493.260905249,6450303.772239332,6447469.620603796,2269365.9410438575,2269365.9410438575,421220757.8725871,176878347.32718533,244342410.54540175,244342410.54540175,244342410.54540175,297870804.2712858,297870804.2712858,244342410.54540175,244342410.54540175,65073517.542456634,62021991.49551902,0.0023574966572009006,-3562177.449030561,90.77425384521484,2022-02-25,0,0,0,0,1,0,0,0,0,0,0,21.140526323707682,1
93.44129486083985,94.13006057739258,94.95674591064453,91.99108169555664,94.2144374461276,94.18014982832877,93.32082984482804,91.99108169555664,62.530904904766714,43.406333577224096,31.519542650659208,1.934945274693547,2.750672550667356,-0.815727275973809,39.30370266494311,32.054869130305846,-18.435183188033825,49.364475251844766,-1.5674486700469337,4.058943619586911,4.174202329195192,6.574533703463956,97.65583382721348,93.44129486083985,89.22675589446621,-1.548439025878892,0.9046163033935773,0.8482551574707031,92.85714285714286,71.42857142857143,-21.42857142857143,0.8155328402272964,0.07121546772334053,1.066858373133437,1.05392513943551,0.2102795311091073,0.12197928653624857,0.26632100991884583,0.23712440896842749,1.0,0.5144105031907104,1.7238954012623986,7.986301369863014,50813057.88290914,90406312.86149651,-35160867.213452004,-35921880.426027454,34235310.60356295,53569159.78791211,19323565.222017057,53569159.78791211,47964400.31691727,61014748.51635295,202275255.110087,202275255.110087,60178107.04478724,47964400.31691727,47964400.31691727,47964400.31691727,47964400.31691727,47964400.31691727,47964400.31691727,47964400.31691727,0.08258021752676793,0.08216885903348392,6005834.001946759,5974982.114950458,6021481.174042598,6018835.439621344,2118496.240412727,2118496.240412727,393217583.73019916,165119299.20420748,228098284.52599165,228098284.52599165,228098284.52599165,278068057.49766856,278068057.49766856,228098284.52599165,228098284.52599165,60747365.49571834,57898707.92972647,0.0022007679390695315,-3325360.3559340625,97.23878479003906,2022-02-28,0,0,0,0,1,0,0,0,0,0,0,14.128961603203457,1
94.60559387207032,94.38390426635742,95.16532020568847,91.99108169555664,95.64281079579081,94.96549667683576,93.81404200199843,91.99108169555664,64.44678919636902,61.84586666660064,43.376276464804505,2.14242746374498,2.6290235332828806,-0.4865960695379008,39.118201081480386,154.65420845672597,-8.88694884877798,50.63986154870078,2.645276413647646,3.953962162858569,4.01419281812974,2.589203225390122,100.29266409028412,94.60559387207032,88.91852365385651,2.5384368896484375,0.6354590059924197,0.5991307772122951,85.71428571428572,100.0,14.285714285714286,0.13398789770645805,0.012965739008364174,1.0267529748336033,1.0035345143285295,0.2102795311091073,0.12197928653624857,0.26632100991884583,0.23712440896842749,1.0,0.5144105031907104,1.7238954012623986,7.986301369863014,50162661.90073934,89249131.9104229,-34710815.83457353,-35462088.24514927,33797106.14603547,52883486.30660822,19076227.830700107,52883486.30660822,47350466.52601665,60233773.134403266,199686176.26505607,199686176.26505607,59407840.48994409,47350466.52601665,47350466.52601665,47350466.52601665,47350466.52601665,47350466.52601665,47350466.52601665,47350466.52601665,0.08152320887733999,0.0811171156824342,5928960.645624727,5898503.656006792,5944407.537353915,5941795.667752239,2091379.9537648866,2091379.9537648866,388184485.0104573,163005808.43518943,225178676.57526788,225178676.57526788,225178676.57526788,274508847.4264503,274508847.4264503,225178676.57526788,225178676.57526788,59969812.55771449,57157617.1829918,0.002172598592746047,-3282796.4736392773,98.4995574951172,2022-03-01,0,0,0,0,1,0,0,0,0,0,0,15.99804469745403,1
95.69034881591797,94.8780502319336,95.31593322753906,91.99108169555664,96.68813067945298,95.65881918046149,94.28687328245357,91.99108169555664,64.87513467271539,85.26921540144666,63.50713854842376,2.302843004430585,2.5637874275124215,-0.2609444230818365,39.2212498309713,158.77878825289534,-16.870221758848352,49.19546233219713,5.265986007172363,3.8570834199768376,3.90476962056848,2.5976597625143256,102.039925189012,95.69034881591797,89.34077244282395,4.941459655761719,0.1359504966824411,0.12881684914613345,78.57142857142857,100.0,21.42857142857143,-0.4104241894078054,0.002834661989968623,1.0264929217085714,0.9893220157946572,0.2102795311091073,0.12197928653624857,0.26632100991884583,0.23712440896842749,1.0,0.5144105031907104,1.7238954012623986,7.986301369863014,50020869.64285756,88996855.90576012,-34612700.52801659,-35361849.35488797,33701573.57641628,52734003.2320674,19022306.022855565,52734003.2320674,47216623.35848768,60063513.37605219,199121733.45585212,199121733.45585212,59239915.353602275,47216623.35848768,47216623.35848768,47216623.35848768,47216623.35848768,47216623.35848768,47216623.35848768,47216623.35848768,0.08129277134833963,0.08088782603651729,5912201.552606519,5881830.6542198425,5927604.781388557,5925000.294626509,2085468.3558851765,2085468.3558851765,387087223.5709981,162545048.16549706,224542175.40550104,224542175.40550104,224542175.40550104,273732907.15912277,273732907.15912277,224542175.40550104,224542175.40550104,59800298.92336766,56996052.638997786,0.0021664574182496494,-3273517.1589752203,98.77877044677734,2022-03-02,0,0,0,0,1,0,0,0,0,0,0,16.235164377343537,1
96.73787689208984,95.26050872802735,95.45850868225098,91.99108169555664,97.25809308073558,96.15685530825046,94.67841086348663,91.99108169555664,63.74723959831521,84.64586695094467,77.25364967299727,2.3719080468621456,2.5254115513823665,-0.15350350452022088,38.788204988142816,105.94033307703432,-20.3052285395398,54.769689569977785,4.0440373609755165,3.779816700748089,3.8413545130867575,2.7753493507743627,102.79365375236422,96.73787689208984,90.68210003181547,3.8245849609375,0.029040721507205484,0.027605252388198664,71.42857142857143,92.85714285714286,21.42857142857143,0.2073172433684729,-0.003854599138604531,1.0286212811777442,1.0058818467397785,0.2102795311091073,0.12197928653624857,0.26632100991884583,0.23712440896842749,1.0,0.5144105031907104,1.7238954012623986,7.986301369863014,50214426.12655048,89341230.53602616,-34746634.87688243,-35498682.54605158,33831982.30627131,52938058.22570359,19095913.113092158,52938058.22570359,47399328.770336255,60295930.01595304,199892237.9038902,199892237.9038902,59469145.06895863,47399328.770336255,47399328.770336255,47399328.770336255,47399328.770336255,47399328.770336255,47399328.770336255,47399328.770336255,0.08160733491119213,0.0812008226575872,5935078.902632155,5904590.483611785,5950541.734432329,5947927.169570819,2093538.106065452,2093538.106065452,388585063.2209642,163174018.5970238,225411044.6239404,225411044.6239404,225411044.6239404,274792120.63060075,274792120.63060075,225411044.6239404,225411044.6239404,60031697.05110983,57216599.69489561,0.0021748405567864402,-3286184.0813043118,98.39801788330078,2022-03-03,0,0,0,0,1,0,0,0,0,0,0,19.416199996510876,1
98.67892913818359,95.78088607788087,95.75338859558106,91.99108169555664,98.33190041238491,96.94279344778376,95.23089697893396,91.99108169555664,67.11334567544566,82.9325897382229,84.28255736353803,2.5650339040357863,2.5333360219130503,0.031697882122736054,38.88776991066808,149.98912707851832,-12.12533519075664,53.97487994592696,5.461803196064818,3.766089165446244,3.748116382338763,3.5876312065222606,100.76453294872407,98.67892913818359,96.59332532764311,5.203773498535156,0.2263412185380913,0.21597974728314284,64.28571428571429,100.0,35.714285714285715,0.49052111280653105,0.02115385286369742,1.0362823601520343,1.0177408269575776,0.2102795311091073,0.12197928653624857,0.26632100991884583,0.23712440896842749,1.0,0.5144105031907104,1.7238954012623986,7.986301369863014,49174202.286688186,87490470.00653225,-34026836.19068749,-34763304.71309488,33131131.231002826,51841412.611082524,18700329.10274987,51841412.611082524,46417421.46632538,59046861.397879176,195751342.8004189,195751342.8004189,58237203.827988215,46417421.46632538,46417421.46632538,46417421.46632538,46417421.46632538,46417421.46632538,46417421.46632538,46417421.46632538,0.0799167869585319,0.07951869586533872,5812129.960620502,5782273.1286310125,5827272.470005166,5824712.067521075,2050169.129944903,2050169.129944903,380535275.9833656,159793764.80774447,220741511.17562112,220741511.17562112,220741511.17562112,269099626.7212633,269099626.7212633,220741511.17562112,220741511.17562112,58788102.1873036,56031321.3669408,0.00212978734858354,-3218108.683709729,100.4795150756836,2022-03-04,0,0,0,0,1,0,0,0,0,0,0,17.036395682902064,1
99.56399841308594,96.5026466369629,96.02626991271973,91.99108169555664,99.4426439964402,97.80121848719594,95.8435859489927,91.99108169555664,68.8840894058332,81.21366755508961,82.93070808141901,2.78161146983318,2.5829911114970763,0.19862035833610392,39.196735897059135,137.81341166766305,-10.232241687452243,55.95840886324609,7.642002230337019,3.813782055363871,3.751354594464579,4.433789624293027,102.14978361004628,99.56399841308594,96.9782132161256,7.217605590820298,0.4891502277547701,0.468413426325867,57.142857142857146,100.0,42.85714285714286,0.02481010225431129,0.0117896278457843,1.0449630841136486,1.0010831935214857,0.2102795311091073,0.12197928653624857,0.26632100991884583,0.23712440896842749,1.0,0.5144105031907104,1.7238954012623986,7.986301369863014,48601212.0833712,86471008.99107796,-33630346.91622063,-34358233.92171941,32745078.936559953,51237343.400583,18482428.153137926,51237343.400583,45876553.96819334,58358832.481408894,193470398.79939854,193470398.79939854,57558609.245660946,45876553.96819334,45876553.96819334,45876553.96819334,45876553.96819334,45876553.96819334,45876553.96819334,45876553.96819334,0.07898557640750267,0.07859212397209793,5744405.5569092855,5714896.62425393,5759371.621956725,5756841.053927932,2026280.04233444,2026280.04233444,376101183.00339633,157931807.5714649,218169375.43193144,218169375.43193144,218169375.43193144,265964010.0227229,265964010.0227229,218169375.43193144,218169375.43193144,58103088.39839581,55378430.283217944,0.002104970529415389,-3180610.4699466527,101.66413116455078,2022-03-07,0,0,0,0,1,0,0,0,0,0,0,18.181040441727443,1
99.80091705322266,97.20325546264648,96.15826759338378,91.99108169555664,99.5231462295604,98.14356979785137,96.20935402011727,91.99108169555664,62.797853503246436,71.50858392762474,78.55161374031236,2.761648311969793,2.6187225515916195,0.14292576037817373,38.1176879086077,82.46643764185724,-28.16816449136381,58.440428722900414,7.55959724713704,4.11493326300854,4.127971432054226,8.02989896238924,102.1603417710723,99.80091705322266,97.44149233537303,7.0060882568359375,0.5955238641874362,0.5718492850279233,50.0,100.0,50.0,-0.44151774337090366,-0.019475703437087932,1.083974848990177,0.9656557176933915,0.2102795311091073,0.12197928653624857,0.26632100991884583,0.23712440896842749,1.0,0.5144105031907104,1.7238954012623986,7.986301369863014,49566555.62104459,88188542.89913033,-34298331.0399416,-35040675.73048143,33395479.38928505,52255047.202999644,18849536.1287073,52255047.202999644,46787778.87402388,59517987.148281224,197313212.40848532,197313212.40848532,58701869.44619775,46787778.87402388,46787778.87402388,46787778.87402388,46787778.87402388,46787778.87402388,46787778.87402388,46787778.87402388,0.08055443060857884,0.08015316320828704,5858504.044260279,5828408.989238394,5873767.373379098,5871186.541840642,2066527.1115027696,2066527.1115027696,383571507.9389316,161068734.4771285,222502773.46180308,222502773.46180308,222502773.46180308,271246730.91224945,271246730.91224945,222502773.46180308,222502773.46180308,59257163.33809156,56478386.591070846,0.0021467805915611296,-3243785.4738488668,99.68415069580078,2022-03-08,0,0,0,0,1,0,0,0,0,0,0,20.106344800445083,1
99.29830780029297,97.49432830810547,96.25303573608399,91.99108169555664,98.43733888041656,97.80214332226547,96.21472260697553,91.99108169555664,53.93715568259705,49.657273564666276,67.45984168246015,2.441840893043519,2.5833462198819994,-0.14150532683848027,36.611707751278594,-2.6835376937832196,-52.432464195519955,50.93299158379647,3.1179139711868586,4.200565585120043,4.363511125904822,5.313785772569588,103.00217938490344,99.29830780029297,95.5944362156825,2.9107284545898438,0.675265470782588,0.6489240695268705,42.85714285714286,92.85714285714286,50.0,-0.12033233771311415,-0.034292578005741814,1.0432170693766651,0.994927837002237,0.2102795311091073,0.12197928653624857,0.26632100991884583,0.23712440896842749,1.0,0.5144105031907104,1.7238954012623986,7.986301369863014,51326679.79157283,91320146.13392365,-35516275.69467466,-36284981.28151465,34581363.49446387,54110640.56553388,19518889.157734334,54110640.56553388,48449227.79759071,61631489.820562966,204319867.39940217,204319867.39940217,60786391.51905242,48449227.79759071,48449227.79759071,48449227.79759071,48449227.79759071,48449227.79759071,48449227.79759071,48449227.79759071,0.08341494408547456,0.08299942755204755,6066541.388034514,6035377.648027488,6082346.722829704,6079674.245141662,2139910.147149161,2139910.147149161,397192254.3028899,166788336.51760644,230403917.78528345,230403917.78528345,230403917.78528345,280878788.6833309,280878788.6833309,230403917.78528345,230403917.78528345,61361404.0738354,58483952.07985328,0.0022230134538345652,-3358973.3287440278,96.2657241821289,2022-03-09,0,0,0,0,1,0,0,0,0,0,0,27.08285896817823,1
99.90584106445313,98.32185897827148,96.53099517822265,91.99108169555664,99.4367873216449,98.46278711896294,96.71195704479706,91.99108169555664,62.544744464209444,49.038555779359115,56.734804423883325,2.5758707415857884,2.5818511242227573,-0.005980382636968873,36.094229617225004,77.15512728660066,-15.735621677497244,55.40058942749002,8.882860850841112,4.311510980777607,4.250487404513677,5.753801124325932,103.81078188507763,99.90584106445313,96.00090024382862,8.275306701660156,1.2050613287897198,1.160680721967637,35.714285714285715,85.71428571428572,50.0,0.6854093087863266,0.05370509665715906,1.0577243789311979,1.0390915697275527,0.2102795311091073,0.12197928653624857,0.26632100991884583,0.23712440896842749,1.0,0.5144105031907104,1.7238954012623986,7.986301369863014,48710668.6248409,86665753.46710715,-33706087.0326515,-34435613.33871064,32818825.309066053,51352736.86840645,18524053.095745,51352736.86840645,45979874.20891681,58490264.51147158,193906120.4578012,193906120.4578012,57688239.06413191,45979874.20891681,45979874.20891681,45979874.20891681,45979874.20891681,45979874.20891681,45979874.20891681,45979874.20891681,0.07916346267101243,0.07876912412719668,5757342.739709996,5727767.348923814,5772342.51037195,5769806.243159691,2030843.5006511286,2030843.5006511286,376948214.0334784,158287491.4876433,218660722.5458351,218660722.5458351,218660722.5458351,266562997.15585372,266562997.15585372,218660722.5458351,218660722.5458351,58233944.45799134,55503150.04206725,0.002109711209414279,-3187773.6374249756,101.43568420410156,2022-03-10,0,0,0,0,1,0,0,0,0,0,0,19.44607366560018,1
99.5555404663086,99.11723480224609,96.70106964111328,91.99108169555664,99.20052890941692,98.51100984005348,96.90396228671743,91.99108169555664,56.581299089771974,47.827473437099265,48.8411009270415,2.4355285935711066,2.5525866180924273,-0.11705802452132064,35.61371420703239,48.38770310891259,-34.95492258586892,54.35293766160455,8.762130122610067,4.280356459731346,4.335503540826752,3.875347686129956,103.50576377181257,99.5555404663086,95.60531716080463,7.953758239746094,1.5409311972191053,1.486066573705429,28.571428571428573,78.57142857142857,50.0,-0.28428951403924607,-0.02669348701481067,1.0347787892515137,0.9903242285469254,0.2102795311091073,0.12197928653624857,0.26632100991884583,0.23712440896842749,1.0,0.5144105031907104,1.7238954012623986,7.986301369863014,50046586.532584034,89042611.25439106,-34630495.72048266,-35380029.702148564,33718900.337375484,52761115.00672541,19032085.831759848,52761115.00672541,47240898.520131946,60094393.42194314,199224106.55927858,199224106.55927858,59270371.9686398,47240898.520131946,47240898.520131946,47240898.520131946,47240898.520131946,47240898.520131946,47240898.520131946,47240898.520131946,0.08133456584834037,0.08092941234473719,5915241.152606573,5884854.639836334,5930652.30054593,5928046.474756806,2086540.543556428,2086540.543556428,387286234.09428924,162628616.34632045,224657617.74796882,224657617.74796882,224657617.74796882,273873639.5981663,273873639.5981663,224657617.74796882,224657617.74796882,59831043.64460107,57025355.63214898,0.002167571244277066,-3275200.150102647,98.72801208496094,2022-03-11,0,0,0,0,1,0,0,0,0,0,0,26.91382033955778,1
98.99562530517578,99.27981185913086,96.70493621826172,91.99108169555664,99.08853772590685,98.5752908434777,97.09068543644784,91.99108169555664,56.804964681646474,57.16014271248056,51.342057309646265,2.3087109485329194,2.5038114841805257,-0.19510053564760632,34.31333268962304,29.624023360908478,-33.985726112616945,56.060972740026784,1.6719363290667033,4.393420844123473,4.443878625838131,5.863257841221127,102.3385714252118,98.99562530517578,95.65267918513976,1.6257705688476562,1.8598541964748976,1.796697861109024,21.42857142857143,71.42857142857143,50.0,-0.3304226149822582,0.0013830246456119077,1.0614270651961255,0.9807805921536674,0.2102795311091073,0.12197928653624857,0.26632100991884583,0.23712440896842749,1.0,0.5144105031907104,1.7238954012623986,7.986301369863014,49977466.464738056,88919633.2101826,-34582667.03965582,-35331165.82904878,33672330.6741779,52688245.86416121,19005800.341478,52688245.86416121,47175653.42876711,60011396.182005845,198948955.25094774,198948955.25094774,59188512.796704836,47175653.42876711,47175653.42876711,47175653.42876711,47175653.42876711,47175653.42876711,47175653.42876711,47175653.42876711,0.08122223349764147,0.08081763955742907,5907071.527101199,5876726.981585268,5922461.390480211,5919859.163634947,2083658.792093916,2083658.792093916,386751347.4490436,162404007.60126173,224347339.84778184,224347339.84778184,224347339.84778184,273495388.7350845,273495388.7350845,224347339.84778184,224347339.84778184,59748410.12086778,56946597.08489683,0.002164577580136398,-3270676.723586098,98.86455535888672,2022-03-14,0,0,0,0,1,0,0,0,0,0,0,26.573524843971562,1
98.48690948486328,99.14391326904297,96.7639087677002,92.44160537719726,98.43921568201732,98.31443279816145,97.09543649909455,92.1930224758971,53.086577384308896,45.139798475612565,50.04247154173075,2.045516528049191,2.4121524929542586,-0.36663596490506745,32.52725401036908,-38.09300137796013,-46.22271836130986,56.76433658420119,-1.3796873157996603,4.4356188173983995,4.566185626255353,4.984192469972442,102.02440114756273,98.48690948486328,94.94941782216382,-1.3589859008789205,2.370959188312832,2.2912986950996697,14.285714285714286,64.28571428571429,50.0,0.7234473258119783,-0.017437834605033453,1.0453636169433596,1.032755654117959,0.2102795311091073,0.12197928653624857,0.26632100991884583,0.23712440896842749,1.0,0.5144105031907104,1.7238954012623986,7.986301369863014,50864432.01753887,90497717.43901724,-35196416.32624274,-35958198.955123104,34269923.93976662,53623320.45726775,19343102.15765139,53623320.45726775,48012894.33916237,61076436.98847563,202479763.88443068,202479763.88443068,60238949.63726032,48012894.33916237,48012894.33916237,48012894.33916237,48012894.33916237,48012894.33916237,48012894.33916237,48012894.33916237,0.08266370959336916,0.08225193519937979,6011906.152245031,5981023.072695827,6027569.144288721,6024920.734918899,2120638.129045336,2120638.129045336,393615143.21445376,165286241.7473394,228328901.46711436,228328901.46711436,228328901.46711436,278349195.97697496,278349195.97697496,228328901.46711436,228328901.46711436,60808783.63238253,57957245.95400603,0.0022029930078432134,-3328722.4348510955,97.14057159423828,2022-03-15,0,0,0,0,1,0,0,0,0,0,0,25.947202921301084,1
98.52191009521485,98.91010894775391,96.89407958984376,92.83898956298827,97.77305286597378,97.97375905920241,97.03308323574142,92.35959913307316,51.60967288353423,39.97682205913359,47.425587749075525,1.760171303447862,2.2817562550529793,-0.5215849516051172,30.868752379633257,-58.519770637996146,-51.190276750503806,56.40675385323248,-2.3669490947453964,4.267535207635425,4.425034246460894,2.0824482807167612,101.97321495234588,98.52191009521485,95.07060523808381,-2.338043212890625,2.3267183897841694,2.248004277547196,7.142857142857143,57.142857142857146,50.0,-0.12083363797910229,-0.0072044496842663674,1.0215478684239712,0.9974401896620728,0.2102795311091073,0.12197928653624857,0.26632100991884583,0.23712440896842749,1.0,0.5144105031907104,1.7238954012623986,7.986301369863014,51233541.489345625,91154434.9793235,-35451827.23174918,-36219137.911816284,34518611.53977567,54012450.43877786,19483469.83575803,54012450.43877786,48361310.97071605,61519652.22754253,203949104.94918826,203949104.94918826,60676087.45637794,48361310.97071605,48361310.97071605,48361310.97071605,48361310.97071605,48361310.97071605,48361310.97071605,48361310.97071605,0.08326357785052527,0.08284881532075927,6055532.9345836565,6024425.744851206,6071309.588738389,6068641.960575694,2136027.02829492,2136027.02829492,396471502.2033231,166485679.44807395,229985822.75524914,229985822.75524914,229985822.75524914,280369101.05857444,280369101.05857444,229985822.75524914,229985822.75524914,61250056.58319462,58377826.06456505,0.002218979534248121,-3352878.0762489103,96.44072723388672,2022-03-16,0,0,0,0,1,0,0,0,0,0,0,28.205541806733642,1
98.35418853759765,99.1300148010254,97.19526176452636,93.24911163330079,98.71439404932106,98.45072585135027,97.37251115767229,92.68263745789443,58.919379192463325,53.95635795576624,46.357659496837414,1.8481119163266442,2.195027387307712,-0.346915470981068,30.431904802358652,61.393939168341156,-24.632146703628518,61.678836400856675,2.234860599857713,4.297998783451846,4.272488760684878,4.694025269065321,101.26141603031263,98.35418853759765,95.44696104488267,2.1990585327148438,2.2541697427792786,2.1833084791134496,0.0,50.0,50.0,0.6833344837984252,0.04309744753426625,1.0367453791435188,1.0249565456224525,0.2102795311091073,0.12197928653624857,0.26632100991884583,0.23712440896842749,1.0,0.5144105031907104,1.7238954012623986,7.986301369863014,49116735.555680275,87388225.51507494,-33987071.213291004,-34722679.0722508,33092413.00644801,51780828.882723846,18678475.229533136,51780828.882723846,46363176.4079524,58977857.124438584,195522580.7821646,195522580.7821646,58169145.74933298,46363176.4079524,46363176.4079524,46363176.4079524,46363176.4079524,46363176.4079524,46363176.4079524,46363176.4079524,0.07982339334388029,0.0794257674741723,5805337.697736749,5775515.7575086495,5820462.511043528,5817905.100737328,2047773.228996182,2047773.228996182,380090568.8538739,159607024.10078982,220483544.7530841,220483544.7530841,220483544.7530841,268785147.27586293,268785147.27586293,220483544.7530841,220483544.7530841,58719400.30912839,55965841.16140051,0.0021272984029377814,-3214347.886838988,100.59707641601562,2022-03-17,0,0,0,0,1,0,0,0,0,0,0,13.289206444067936,1
98.37467346191406,98.96510696411133,97.3729965209961,93.65329971313477,98.75307493506169,98.51976418865803,97.51136120994569,92.9237276245081,55.108865833955136,59.28400254214202,51.072394185680565,1.7550216286090432,2.1070262355679783,-0.3520046069589351,30.386708804575864,43.13175448894475,-49.34536116219679,58.956999749011274,-1.6412085268310839,4.392733510617262,4.444717292569088,5.624284963767664,101.29356842148167,98.37467346191406,95.45577850234645,-1.6490783691406392,2.1388056272186295,2.0740008720984804,0.0,42.85714285714286,42.85714285714286,-0.4370256227395446,-0.017561541273493853,1.0579289399977239,0.9757330869058619,0.2102795311091073,0.12197928653624857,0.26632100991884583,0.23712440896842749,1.0,0.5144105031907104,1.7238954012623986,7.986301369863014,49994719.892529696,88950330.41393009,-34594605.81108258,-35343363.000325084,33683955.17551737,52706435.118434966,19012361.602522425,52706435.118434966,47191939.6030679,60032113.56453728,199017637.23257774,199017637.23257774,59208946.1000287,47191939.6030679,47191939.6030679,47191939.6030679,47191939.6030679,47191939.6030679,47191939.6030679,47191939.6030679,0.08125027337320652,0.08084553975739978,5909110.7907786565,5878755.769593149,5924505.967109991,5921902.8419132065,2084378.1214048,2084378.1214048,386884863.3496793,162460073.38483238,224424789.9648469,224424789.9648469,224424789.9648469,273589805.94497275,273589805.94497275,224424789.9648469,224424789.9648469,59769036.71426288,56966256.42480109,0.0021653248445661515,-3271805.840139455,98.83043670654295,2022-03-18,0,0,0,0,1,0,0,0,0,0,0,15.60493389521291,1
99.50465240478516,99.25013885498046,97.87639274597169,94.13891311645507,100.6735333144552,99.60970707676424,98.17832205406917,93.37826575975258,63.326850414439626,80.28671483065746,64.50902510952186,2.1155129637395333,2.1087235812022893,0.0067893825372440375,30.845187673563,202.43824640668086,-5.534518832604536,60.4115473522417,2.803662290762099,4.5294697225277005,4.3338215140141045,6.307040477363401,105.28202518061323,99.50465240478516,93.72727962895709,2.8503189086914205,2.2916595837334945,2.2303217374361424,71.42857142857143,100.0,28.571428571428573,0.8643117668413791,0.05751278205495325,1.0456667939419717,1.0394703473579667,0.2102795311091073,0.12197928653624857,0.26632100991884583,0.23712440896842749,1.0,0.5144105031907104,1.7238954012623986,7.986301369863014,47275759.44319105,84112770.95023124,-32713179.829239063,-33421215.89456919,31852054.884918645,49839998.166278526,17978375.226422988,49839998.166278526,44625408.22567154,56767269.94058946,188194072.55375934,188194072.55375934,55988870.39925342,44625408.22567154,44625408.22567154,44625408.22567154,44625408.22567154,44625408.22567154,44625408.22567154,44625408.22567154,0.07683148114325523,0.0764487589457795,5587744.083145836,5559039.918335156,5602301.993548979,5599840.439191474,1971019.3170000722,1971019.3170000722,365844148.56706196,153624690.06676292,212219458.50029904,212219458.50029904,212219458.50029904,258710637.43866482,258710637.43866482,212219458.50029904,212219458.50029904,56518500.512230225,53868149.29471071,0.0020475637564952207,-3093868.8360642786,104.5144500732422,2022-03-21,0,0,0,0,1,0,0,0,0,0,0,6.15299690092311,1
100.70120239257812,99.5940559387207,98.39865570068359,94.552353515625,101.49012938737117,100.24854606884404,98.64927438541527,93.76042480969181,60.41194532690584,76.84041891844178,72.1370454304137,2.262867568254734,2.139552378612778,0.12331518964195576,31.270918051908193,148.38412387638672,-17.89229102523426,62.26975297094647,3.4500678527095374,4.425396684828329,4.29136360139783,3.0724471947364975,106.50256596017799,100.70120239257812,94.89983882497826,3.4391708374023438,2.3426619863970597,2.2838659531030885,64.28571428571429,92.85714285714286,28.571428571428573,-0.3583337395281278,-0.013310394295374395,1.0302673482447133,0.9894366124589408,0.2102795311091073,0.12197928653624857,0.26632100991884583,0.23712440896842749,1.0,0.5144105031907104,1.7238954012623986,7.986301369863014,47913507.11496547,85247448.09707782,-33154479.01762132,-33872066.45468011,32281737.540117398,50512337.2924216,18220902.624776386,50512337.2924216,45227402.78975895,57533057.622564286,190732801.34471884,190732801.34471884,56744157.50966591,45227402.78975895,45227402.78975895,45227402.78975895,45227402.78975895,45227402.78975895,45227402.78975895,45227402.78975895,0.07786793404840572,0.07748004894729288,5663122.47624769,5634031.093664226,5677876.7721468005,5675382.011541973,1997608.2707312056,1997608.2707312056,370779368.15377855,155697079.58670017,215082288.56707835,215082288.56707835,215082288.56707835,262200631.22476247,262200631.22476247,215082288.56707835,215082288.56707835,57280932.306840934,54594827.98163441,0.002075185290953777,-3135604.974631157,103.12332153320312,2022-03-22,0,0,0,0,1,0,0,0,0,0,0,0.9168591463225165,1
102.5020034790039,100.51195678710937,99.00314254760742,95.01390213012695,102.80833048025265,101.19330726832978,99.29646088832959,94.2186329609202,63.436450711058036,87.48099685212146,81.5360435337402,2.5377124619510596,2.2191843952804344,0.31852806667062517,32.0607819765602,188.77404141948804,-8.999295746563273,63.52559462559281,9.535074463804571,4.356799897628628,4.131832655338322,3.465041664032512,107.41767492182227,102.5020034790039,97.58633203618554,9.179008483886719,2.2831359834435507,2.2341617682041175,57.142857142857146,100.0,42.85714285714286,-0.3497935668199942,0.02251101979938719,1.0198432167511249,0.9931672149220652,0.2102795311091073,0.12197928653624857,0.26632100991884583,0.23712440896842749,1.0,0.5144105031907104,1.7238954012623986,7.986301369863014,46858670.65214214,83370688.8692535,-32424568.90501396,-33126358.346070126,31571041.206432138,49400286.46569691,17819761.618169416,49400286.46569691,44231702.06872919,56266442.618732914,186533736.70450997,186533736.70450997,55494910.48106152,44231702.06872919,44231702.06872919,44231702.06872919,44231702.06872919,44231702.06872919,44231702.06872919,44231702.06872919,0.0761536379956894,0.07577429235187527,5538446.399686502,5509995.4764004415,5552875.873416777,5550436.036039457,1953630.0656428416,1953630.0656428416,362616500.92194027,152269341.42699742,210347159.49494284,210347159.49494284,210347159.49494284,256428171.577266,256428171.577266,210347159.49494284,210347159.49494284,56019867.95025372,53392899.36684077,0.0020294991944056705,-3066573.2827469683,105.44473266601562,2022-03-23,0,0,0,0,1,0,0,0,0,0,0,-7.817955072523736,0
103.03797760009766,100.69608306884766,99.50897102355957,95.36254623413086,102.96453599399656,101.57215085981242,99.6755548057729,94.57386096329527,58.91028663879459,77.70558658752583,80.67566745269632,2.5511982108735936,2.2855871583990663,0.2656110524745272,32.01930571371394,107.28519121165347,-26.057728166585772,60.096655145279954,1.8152022454720695,4.247991340442504,4.113203830046223,2.8334800970228997,107.57583888078715,103.03797760009766,98.50011631940818,1.8412628173828125,2.2098780847855797,2.1704985300699917,50.0,92.85714285714286,42.85714285714286,-0.7048182388506277,-0.02055850102439416,1.0275747479464163,0.9810296200499623,0.2102795311091073,0.12197928653624857,0.26632100991884583,0.23712440896842749,1.0,0.5144105031907104,1.7238954012623986,7.986301369863014,47842235.295473434,85120641.668186,-33105161.39955954,-33821681.41815194,32233718.13370392,50437199.68713239,18193798.850474518,50437199.68713239,45160126.577228926,57447476.62579314,190449084.40126836,190449084.40126836,56659750.00967739,45160126.577228926,45160126.577228926,45160126.577228926,45160126.577228926,45160126.577228926,45160126.577228926,45160126.577228926,0.07775210472022903,0.07736479660207099,5654698.525107566,5625650.416245713,5669430.873844439,5666939.824220882,1994636.8085139703,1994636.8085139703,370227830.1472824,155465478.6286423,214762351.51864013,214762351.51864013,214762351.51864013,261810605.17188954,261810605.17188954,214762351.51864013,214762351.51864013,57195726.3489904,54513617.63074589,0.002072098432145581,-3130940.730971973,103.27694702148438,2022-03-24,0,0,0,0,1,0,0,0,0,0,0,-0.8430331256118544,0
104.52469635009766,101.44968490600586,100.28345985412598,95.76135604858399,104.06436748151202,102.4252198773998,100.30302867727481,95.03229898263832,62.84427325451952,82.57740403437423,82.5879958246738,2.770976342759184,2.3826649952710897,0.38831134748809415,32.13565106549329,114.56957002342776,-2.552193364996263,63.43054595532045,7.633110616161143,4.2140120904601215,3.9656053627510923,3.7722818406891463,106.95658199002767,104.52469635009766,102.09281071016764,7.536018371582017,2.5885405198928986,2.5540523529052734,42.85714285714286,85.71428571428572,42.85714285714286,0.9932129430487856,0.02892304160034076,1.0367965207116272,1.0365467806299509,0.2102795311091073,0.12197928653624857,0.26632100991884583,0.23712440896842749,1.0,0.5144105031907104,1.7238954012623986,7.986301369863014,46497389.36846217,82727899.19816856,-32174574.833186023,-32870953.463679083,31327627.850153927,49019409.27349108,17682370.901303463,49019409.27349108,43890674.76513004,55832627.22588262,185095557.8806481,185095557.8806481,55067043.6163538,43890674.76513004,43890674.76513004,43890674.76513004,43890674.76513004,43890674.76513004,43890674.76513004,43890674.76513004,0.07556649193053049,0.0751900710491829,5495744.867674945,5467513.301573875,5510063.089875469,5507642.063692906,1938567.5389401347,1938567.5389401347,359820720.4801699,151095341.77292624,208725378.70724362,208725378.70724362,208725378.70724362,254451105.26894322,254451105.26894322,208725378.70724362,208725378.70724362,55587953.65300668,52981239.049674556,0.0020138517152096546,-3042929.941681788,106.26403045654295,2022-03-25,0,0,0,0,1,0,0,0,0,0,0,-9.265909351498049,0
104.25158996582032,101.87812118530273,100.5789665222168,96.09820205688476,103.75921770495984,102.55680138184628,100.57406577009202,95.35059777358802,56.74296674312198,64.01348776519208,74.76549279569734,2.66309012158041,2.4387500205329538,0.2243401010474564,32.0837654697202,60.67653906335599,-27.065194853103378,57.55279071445102,4.333568059266701,4.205624809166456,4.077235985136508,4.096590152348796,106.92176747093389,104.25158996582032,101.58141246070674,4.284362792968764,2.4189106733255996,2.394007364908859,35.714285714285715,78.57142857142857,42.85714285714286,-0.3450684361106145,-0.02931483298068016,1.0237240329880977,0.991956699302409,0.2102795311091073,0.12197928653624857,0.26632100991884583,0.23712440896842749,1.0,0.5144105031907104,1.7238954012623986,7.986301369863014,47901617.27848543,85226293.76546557,-33146251.664671462,-33863661.03091472,32273726.759781014,50499802.550825864,18216381.0698794,50499802.550825864,45216179.51565595,57518780.674611226,190685470.60322404,190685470.60322404,56730076.32891726,45216179.51565595,45216179.51565595,45216179.51565595,45216179.51565595,45216179.51565595,45216179.51565595,45216179.51565595,0.07784861095855859,0.07746082211194062,5661717.160622443,5632632.997126095,5676467.795212328,5673973.653687536,1997112.5600825741,1997112.5600825741,370687358.48212284,155658443.03245538,215028915.44966745,215028915.44966745,215028915.44966745,262135565.592586,262135565.592586,215028915.44966745,215028915.44966745,57266717.92430954,54581280.16148006,0.0020746703294061693,-3134826.867732722,103.14891815185548,2022-03-28,0,0,0,0,1,0,0,0,0,0,0,-9.563611067656772,0
104.21744842529297,102.45932540893554,100.80161933898925,96.36969207763671,103.4903497468287,102.62876728161358,100.80059415680387,95.64871605033227,56.371553000112314,60.097584415934165,68.89615873850012,2.53255567056452,2.457511150539267,0.07504452002525275,30.642712927893648,13.91908098727672,-28.609925074431228,65.5982812083461,5.983125424261826,4.217954197424789,4.096986021517103,4.378236244783125,106.94813786292428,104.21744842529297,101.48675898766166,5.812042236328125,2.436010037281494,2.4189002697284394,28.571428571428573,71.42857142857143,42.85714285714286,0.6023387899149194,-0.0019031156584703446,1.044319630699075,1.026288891558809,0.2102795311091073,0.12197928653624857,0.26632100991884583,0.23712440896842749,1.0,0.5144105031907104,1.7238954012623986,7.986301369863014,47992953.41963457,85388798.52499647,-33209453.09486554,-33928230.37741016,32335264.507986948,50596092.767228596,18251115.052720778,50596092.767228596,45302395.213352695,57628454.28834081,191049059.05905536,191049059.05905536,56838246.08504169,45302395.213352695,45302395.213352695,45302395.213352695,45302395.213352695,45302395.213352695,45302395.213352695,45302395.213352695,0.07799704836261194,0.07760852010177702,5672512.60818996,5643372.988627341,5687291.368469947,5684792.471254735,2000920.5432998831,2000920.5432998831,371394164.5321084,155955243.89914042,215438920.632968,215438920.632968,215438920.632968,262635391.11789098,262635391.11789098,215438920.632968,215438920.632968,57375910.918798104,54685352.712516226,0.002078626195466869,-3140804.181350439,102.9526138305664,2022-03-29,0,0,0,0,1,0,0,0,0,0,0,-6.499656704489089,0
103.79754333496093,103.14977340698242,101.02994117736816,96.64835662841797,103.44196890267096,102.75902908756665,101.04293825752308,95.95053923323513,56.97805711251891,48.8037229439282,57.63826504168478,2.432742046731093,2.4525573297776324,-0.019815283046539456,29.86863226057568,60.58054252681289,-25.520584704081998,58.34855871122038,7.15929895854488,4.092849801072004,3.960367308164315,2.466492648485783,106.27847988458737,103.79754333496093,101.3166067853345,6.904479980468764,2.388991218549637,2.382013125297348,21.42857142857143,64.28571428571429,42.85714285714286,-0.21107292013156861,0.003813340615471672,1.0239973377258575,0.9949876694687924,0.2102795311091073,0.12197928653624857,0.26632100991884583,0.23712440896842749,1.0,0.5144105031907104,1.7238954012623986,7.986301369863014,47810635.18264111,85064418.92139202,-33083295.221503735,-33799341.97388492,32212427.54968878,50403885.58315676,18181781.726003367,50403885.58315676,45130298.014943965,57409532.187534854,190323291.52142644,190323291.52142644,56622325.87005892,45130298.014943965,45130298.014943965,45130298.014943965,45130298.014943965,45130298.014943965,45130298.014943965,45130298.014943965,0.07770074894082334,0.07731369664223892,5650963.559332606,5621934.636938774,5665686.177255701,5663196.772986895,1993319.3377097892,1993319.3377097892,369983292.21685195,155362792.65178823,214620499.56506371,214620499.56506371,214620499.56506371,261637677.53560674,261637677.53560674,214620499.56506371,214620499.56506371,57157948.19345497,54477611.025757834,0.002070729797426674,-3128872.723911705,103.34520721435548,2022-03-30,0,0,0,0,1,0,0,0,0,0,0,-4.184889288918554,0
103.49371032714843,103.26584396362304,101.19792938232422,96.90441131591797,102.88057326258793,102.5769841593585,101.11101861227534,96.17827424300717,53.72582117730309,51.24432478516485,53.38187738167571,2.2001847212745247,2.4020828080770107,-0.201898086802486,28.758889296934136,37.292431475394864,-38.01212698783644,52.63480595840105,1.1538164007929952,4.084582685415132,4.014024879316573,3.9771101818758012,106.47657352543544,103.49371032714843,100.51084712886143,1.16070556640625,2.4428370838418427,2.4435965709197234,14.285714285714286,57.142857142857146,42.85714285714286,-0.35407624489395173,-0.015360414621270468,1.039087367765482,0.9863501494542123,0.2102795311091073,0.12197928653624857,0.26632100991884583,0.23712440896842749,1.0,0.5144105031907104,1.7238954012623986,7.986301369863014,48556482.89241929,86391427.06076868,-33599395.87313936,-34326612.98182971,32714942.63284028,51190188.09686543,18465418.205799606,51190188.09686543,45834332.36394325,58305123.052160226,193292342.03825036,193292342.03825036,57505636.28647921,45834332.36394325,45834332.36394325,45834332.36394325,45834332.36394325,45834332.36394325,45834332.36394325,45834332.36394325,0.0789128835511287,0.07851979322210689,5739118.803718451,5709637.029041816,5754071.095035717,5751542.8559665475,2024415.1944623303,2024415.1944623303,375755045.51194984,157786458.06935522,217968587.4425946,217968587.4425946,217968587.4425946,265719235.16051918,265719235.16051918,217968587.4425946,217968587.4425946,58049614.33829605,55327463.809820004,0.0021030332602666926,-3177683.256262973,101.75778198242188,2022-03-31,0,0,0,0,1,0,0,0,0,0,0,1.2018507683093855,1
102.78022003173828,103.65245819091797,101.30878257751465,97.206826171875,102.81924183488935,102.59872867211008,101.26202436153409,96.43389403659482,55.34900838808294,52.22532860006573,50.75779210971956,2.067798147292521,2.3352258759201128,-0.2674277286275917,27.57526965963398,18.22640025476492,-30.62467833900701,52.005745903630086,3.911894353385259,3.9586415125688075,3.8546965750040427,2.321406265566594,103.88918128714126,102.78022003173828,101.6712587763353,3.866142272949247,2.587844381982397,2.5981405698336033,7.142857142857143,50.0,42.85714285714286,0.3860303604887447,0.00922580051157662,1.0229052734374997,1.0088028425763205,0.2102795311091073,0.12197928653624857,0.26632100991884583,0.23712440896842749,1.0,0.5144105031907104,1.7238954012623986,7.986301369863014,48112605.59114324,85601683.00986445,-33292248.232365664,-34012817.512621604,32415880.188811142,50722234.87639448,18296617.26487718,50722234.87639448,45415339.50153655,57772128.9156553,191525367.20748764,191525367.20748764,56979950.62881825,45415339.50153655,45415339.50153655,45415339.50153655,45415339.50153655,45415339.50153655,45415339.50153655,45415339.50153655,0.07819150433047566,0.0778020074222292,5686654.86039823,5657442.592279745,5701470.465894727,5698965.338629958,2005909.0774692385,2005909.0774692385,372320094.5927855,156344058.97012666,215976035.6226588,215976035.6226588,215976035.6226588,263290172.5518968,263290172.5518968,215976035.6226588,215976035.6226588,57518955.92529511,54821689.83568841,0.002083808459118529,-3148634.581728098,102.6965789794922,2022-04-01,0,0,0,0,1,0,0,0,0,0,0,-4.037428812851937,0
102.77510070800781,103.51334533691406,101.38174209594726,97.56634429931641,102.92060173432728,102.69410919230882,101.4392907588359,96.69622452665789,56.10279036620038,52.803303372767914,52.09098558599947,1.9745539623058619,2.2630914931972628,-0.2885375308914009,26.61585454738477,21.188205548665344,-30.051774282048623,54.52045670220767,-1.3310394295374395,3.8496209586609957,3.73302653699097,2.4323537578594454,103.87742303169844,102.77510070800781,101.67277838431718,-1.3911285400390767,2.3135038641409853,2.3336968544201966,0.0,42.85714285714286,42.85714285714286,-0.21052589310810618,0.004155372632190124,1.0239194161781198,0.9950588942385474,0.2102795311091073,0.12197928653624857,0.26632100991884583,0.23712440896842749,1.0,0.5144105031907104,1.7238954012623986,7.986301369863014,47913507.11496547,85247448.09707782,-33154479.01762132,-33872066.45468011,32281737.540117398,50512337.2924216,18220902.624776386,50512337.2924216,45227402.78975895,57533057.622564286,190732801.34471884,190732801.34471884,56744157.50966591,45227402.78975895,45227402.78975895,45227402.78975895,45227402.78975895,45227402.78975895,45227402.78975895,45227402.78975895,0.07786793404840572,0.07748004894729288,5663122.47624769,5634031.093664226,5677876.7721468005,5675382.011541973,1997608.2707312056,1997608.2707312056,370779368.15377855,155697079.58670017,215082288.56707835,215082288.56707835,215082288.56707835,262200631.22476247,262200631.22476247,215082288.56707835,215082288.56707835,57280932.306840934,54594827.98163441,0.002075185290953777,-3135604.974631157,103.12332153320312,2022-04-04,0,0,0,0,1,0,0,0,0,0,0,-6.781057042535908,0
102.29716644287109,103.25730743408204,101.42568168640136,97.84622467041015,102.13471532451246,102.30662434004954,101.35582902036417,96.84786052580397,50.58506653029049,40.51748469568843,48.51537222284066,1.6747506018684675,2.1454233149315036,-0.47067271306303615,25.21006848264647,-52.892641131593756,-63.432281236029226,43.95305531743119,-2.4828321957181654,3.865433117310831,3.843794762790624,4.070991179758693,104.34439292368009,102.29716644287109,100.24993996206209,-2.5603790283203267,2.3269348597039388,2.3502201178134925,0.0,35.714285714285715,35.714285714285715,-0.6540874869844361,-0.024828321957181654,1.0405405107479402,0.9742042563380745,0.2102795311091073,0.12197928653624857,0.26632100991884583,0.23712440896842749,1.0,0.5144105031907104,1.7238954012623986,7.986301369863014,49133407.16696005,87417887.55408739,-33998607.38794503,-34734464.93304826,33103645.508765433,51798404.76273931,18684815.233094096,51798404.76273931,46378913.383262835,58997875.8796952,195588946.68426174,195588946.68426174,58188890.00504212,46378913.383262835,46378913.383262835,46378913.383262835,46378913.383262835,46378913.383262835,46378913.383262835,46378913.383262835,0.07985048766457988,0.07945272682938895,5807308.193787628,5777476.131148308,5822438.140884453,5819879.862520756,2048468.3012333072,2048468.3012333072,380219582.35901326,159661199.24564067,220558383.1133726,220558383.1133726,220558383.1133726,268876380.56819123,268876380.56819123,220558383.1133726,220558383.1133726,58739331.336821094,55984837.55312388,0.0021280204682714936,-3215438.927558227,100.5629425048828,2022-04-05,0,0,0,0,1,0,0,0,0,0,0,-3.3862868832422564,0
101.84653930664062,102.82204132080078,101.66699905395508,98.05833465576171,101.78716739407601,102.08579655698655,101.33070925968217,97.01430017315295,51.64352099401953,28.337011733144056,40.55259993386677,1.4629861752736275,2.0089358869999283,-0.5459497117263008,23.717629616803944,-88.73172830710895,-57.86190481780512,43.748453858883146,-4.1279075993288945,3.83744310232218,3.7959881958317503,3.473572907469716,103.76016634088273,101.84653930664062,99.93291227239851,-4.3526611328125,1.943919024656791,1.9653098277556609,7.142857142857143,28.571428571428573,21.42857142857143,-0.356266507705316,0.005261670105711547,1.0347536476271222,0.987906550799136,0.2102795311091073,0.12197928653624857,0.26632100991884583,0.23712440896842749,1.0,0.5144105031907104,1.7238954012623986,7.986301369863014,48876236.5343078,86960330.98018616,-33820654.26245666,-34552660.23362419,32930376.72995561,51527285.18664426,18587016.484105315,51527285.18664426,46136160.12872122,58689073.33698607,194565208.74181342,194565208.74181342,57884321.799440615,46136160.12872122,46136160.12872122,46136160.12872122,46136160.12872122,46136160.12872122,46136160.12872122,46136160.12872122,0.07943253984426059,0.0790368609409268,5776911.988673498,5747236.070923463,5791962.743662729,5789417.855660156,2037746.3521690764,2037746.3521690764,378229463.6967806,158825511.79818782,219403951.8985928,219403951.8985928,219403951.8985928,267469046.6810663,267469046.6810663,219403951.8985928,219403951.8985928,58431882.0498191,55691805.64423253,0.0021168821328358366,-3198608.902714949,101.09207153320312,2022-04-06,0,0,0,0,1,0,0,0,0,0,0,-9.746980077492351,0
102.08380432128907,102.78875732421875,101.7424201965332,98.29750061035156,102.17281394793869,102.24185301129155,101.48436619263282,97.24684161952594,55.25612196347298,29.89238513066867,32.91562718650036,1.4281423935477875,1.8927771883095001,-0.46463479476171266,22.264528950716873,-83.08361600309811,-46.717512206396336,43.23946809374418,-0.32227905202414364,3.8120621827384786,3.7030407002094994,3.4821102281503613,104.18004175019696,102.08380432128907,99.98756689238117,-0.3328399658203125,1.7678840687506838,1.7901700337727817,0.0,21.42857142857143,21.42857142857143,0.14706025349026183,0.018320284611564652,1.0348956713560602,1.004999217799514,0.2102795311091073,0.12197928653624857,0.26632100991884583,0.23712440896842749,1.0,0.5144105031907104,1.7238954012623986,7.986301369863014,47996919.31203305,85395854.61891976,-33212197.354349524,-33931034.0329754,32337936.52899373,50600273.769759186,18252623.23159484,50600273.769759186,45306138.77177133,57633216.40928801,191064846.3769233,191064846.3769233,56842942.9072214,45306138.77177133,45306138.77177133,45306138.77177133,45306138.77177133,45306138.77177133,45306138.77177133,45306138.77177133,0.07800349364007798,0.0776149332732532,5672981.355642036,5643839.328130176,5687761.337163244,5685262.233451937,2001085.8891477045,2001085.8891477045,371424854.64782345,155968131.2434735,215456723.40434992,215456723.40434992,215456723.40434992,262657093.96439216,262657093.96439216,215456723.40434992,215456723.40434992,57380652.17085189,54689871.63059018,0.002078797962512664,-3141063.721356635,102.94410705566406,2022-04-07,0,0,0,0,1,0,0,0,0,0,0,-14.676741947174444,0
103.20183715820312,102.9910285949707,102.22035675048828,98.60595092773437,104.2107903533133,103.340923948159,102.13221161848327,97.67977893499796,63.68456789793103,59.081080418177514,39.10349242733005,1.810761201201231,1.8763739908878463,-0.06561278968661521,22.725960706915618,207.6393753111568,-8.770477669764666,50.83422435253454,1.9034782501937464,3.986617445492357,3.68153785865767,6.2558358612927805,108.66763880709665,103.20183715820312,97.73603550930959,2.0227127075195455,1.6200841007526494,1.646668654221756,42.85714285714286,100.0,57.142857142857146,0.7909236145287447,0.051898416152267535,1.050665119320023,1.0399999774870325,0.2102795311091073,0.12197928653624857,0.26632100991884583,0.23712440896842749,1.0,0.5144105031907104,1.7238954012623986,7.986301369863014,45628854.05569928,81182605.95095171,-31573578.63113456,-32256949.446783565,30742451.963453334,48103764.57723893,17352077.873033587,48103764.57723893,43070830.86739151,54789716.88169679,181638115.85135585,181638115.85135585,54038433.78255748,43070830.86739151,43070830.86739151,43070830.86739151,43070830.86739151,43070830.86739151,43070830.86739151,43070830.86739151,0.07415496823866935,0.07378557860858881,5393088.599175952,5365384.376919912,5407139.368047031,5404763.564763241,1902356.5949148051,1902356.5949148051,353099547.39399266,148272997.51433066,204826549.87966204,204826549.87966204,204826549.87966204,249698155.1936962,249698155.1936962,204826549.87966204,204826549.87966204,54549613.62214444,51991590.43383667,0.001976234520930914,-2986090.3611266115,108.2867431640625,2022-04-08,0,0,0,0,1,0,0,0,0,0,0,-15.542528337194295,0
103.28888854980468,103.03199462890625,102.45505790710449,98.82068389892578,103.99338639927917,103.38049750144117,102.26805608255258,97.91032009406513,53.99150561396306,65.84083873588742,51.60476809491117,1.7127227865574923,1.8436437500217755,-0.13092096346428317,22.843831672564658,58.8053923114365,-54.180326446862026,48.954762403162206,0.3971542762594593,4.06518872997359,3.925496843623249,5.086615428229621,108.76077630689306,103.28888854980468,97.8170007927163,0.40966033935545454,1.5248841921159602,1.551712427383805,35.714285714285715,92.85714285714286,57.142857142857146,-0.9086960199425811,-0.043663374986613435,1.038041668407025,0.966698530776238,0.2102795311091073,0.12197928653624857,0.26632100991884583,0.23712440896842749,1.0,0.5144105031907104,1.7238954012623986,7.986301369863014,47712126.5276864,84889152.86478268,-33015130.66143692,-33729702.07674734,32146057.318491813,50300033.81556739,18144320.12659841,50300033.81556739,45037311.9055109,57291246.04103692,189931150.91541466,189931150.91541466,56505661.67723741,45037311.9055109,45037311.9055109,45037311.9055109,45037311.9055109,45037311.9055109,45037311.9055109,45037311.9055109,0.07754065493165792,0.07715440011257121,5639320.358666031,5610351.247234528,5654012.642223488,5651528.367103567,1989212.3182965794,1989212.3182965794,369220981.56499034,155042684.38140717,214178297.18358317,214178297.18358317,214178297.18358317,261098601.33214182,261098601.33214182,214178297.18358317,214178297.18358317,57040180.40863056,54365365.78645506,0.0020664632821139222,-3122426.0192741365,103.55857849121094,2022-04-11,0,0,0,0,1,0,0,0,0,0,0,-11.308213057229349,0
104.4393524169922,103.36825942993164,102.91379241943359,99.06042770385743,104.76734487979289,103.91409101769193,102.65350425000665,98.23992565276141,58.00483716367426,66.57597954008446,63.83263289804976,1.8363002185113544,1.8421750437196913,-0.005874825208336931,23.313683850237005,154.38308713683475,-27.704815822015703,49.04207736922329,3.2662094580599765,4.132661815574175,3.8871764448661845,5.0098119283817795,109.54129419956308,104.4393524169922,99.3374106344213,3.3626480102539205,1.3509080682147374,1.3770920680119474,28.571428571428573,85.71428571428572,57.142857142857146,0.21937212946923162,0.02661955571206831,1.0283751190204078,1.006219681939301,0.2102795311091073,0.12197928653624857,0.26632100991884583,0.23712440896842749,1.0,0.5144105031907104,1.7238954012623986,7.986301369863014,46474983.12516855,82688034.133446,-32159070.492805354,-32855113.551146273,31312531.6380664,48995787.71483565,17673850.089494374,48995787.71483565,43869524.65002754,55805722.50184679,185006363.70956084,185006363.70956084,55040507.81308642,43869524.65002754,43869524.65002754,43869524.65002754,43869524.65002754,43869524.65002754,43869524.65002754,43869524.65002754,0.0755300778172644,0.07515383832626932,5493096.568528321,5464878.606703688,5507407.891038894,5504988.03150466,1937633.3786247156,1937633.3786247156,359647329.4422069,151022531.6854293,208624797.75677764,208624797.75677764,208624797.75677764,254328489.92540625,254328489.92540625,208624797.75677764,208624797.75677764,55561166.83269998,52955708.35755898,0.002012881276823734,-3041463.6092806617,106.31526184082033,2022-04-12,0,0,0,0,1,0,0,0,0,0,0,-15.098018981619902,0
105.43933868408203,103.64293899536133,103.39635620117187,99.26693756103515,105.20889754274604,104.31007499059382,102.98098030892528,98.54785024946302,57.566865190721906,58.80448483282834,63.74043436960003,1.8943838130770558,1.8526167975911643,0.04176701548589157,23.243453439288793,100.85277743524645,-29.849021209465537,48.951084609898786,2.6578839293432743,4.087700362829848,3.8529768995789837,3.5032014771535955,109.34465444283873,105.43933868408203,101.53402292532533,2.746795654296861,1.3464766956801306,1.3758932749430386,21.42857142857143,78.57142857142857,57.142857142857146,-0.3210795588416808,-0.002099971051214178,1.033552647057993,0.98950904813667,0.2102795311091073,0.12197928653624857,0.26632100991884583,0.23712440896842749,1.0,0.5144105031907104,1.7238954012623986,7.986301369863014,46572784.624654755,82862042.02293867,-32226745.725904595,-32924253.53044304,31378425.42308757,49098893.97082101,17711042.76659103,49098893.97082101,43961843.248206794,55923159.51792687,185395689.29008994,185395689.29008994,55156334.518867135,43961843.248206794,43961843.248206794,43961843.248206794,43961843.248206794,43961843.248206794,43961843.248206794,43961843.248206794,0.07568902257356358,0.07531199132786713,5504656.187168261,5476378.843741027,5518997.626285814,5516572.674422868,1941710.9153367495,1941710.9153367495,360404167.7612425,151340342.02255753,209063825.73868498,209063825.73868498,209063825.73868498,254863696.30966198,254863696.30966198,209063825.73868498,209063825.73868498,55678089.20822417,53067147.83177622,0.0020171171644760406,-3047864.0355232977,106.09200286865234,2022-04-13,0,0,0,0,1,0,0,0,0,0,0,-18.373448683707988,0
105.962451171875,104.02312774658203,103.64448585510254,99.46720077514648,105.325821526707,104.53727399132747,103.22656975518277,98.82282355319502,56.4719651656804,58.55598467828482,61.31214968373251,1.8758371429363336,1.8572608666601982,0.01857627627613545,23.178239486265454,76.2972685595965,-34.96161344894594,51.11149387453134,3.7362130326934473,3.894463967801833,3.689348390769631,1.3823908324376362,108.99354724023999,105.962451171875,102.93135510351001,3.8018875122070312,1.2050539926608965,1.2356884785187532,14.285714285714286,71.42857142857143,57.142857142857146,-0.03726555021655922,-0.005017657878346404,1.013163278901876,0.9995122149707826,0.2102795311091073,0.12197928653624857,0.26632100991884583,0.23712440896842749,1.0,0.5144105031907104,1.7238954012623986,7.986301369863014,46807649.39541051,83279912.13014649,-32389263.971444756,-33090289.28115137,31536665.621801578,49346497.814347975,17800358.877550364,49346497.814347975,44183541.14150873,56205177.871477544,186330632.6570187,186330632.6570187,55434485.80329009,44183541.14150873,44183541.14150873,44183541.14150873,44183541.14150873,44183541.14150873,44183541.14150873,44183541.14150873,0.07607071941816361,0.0756917868183222,5532415.957684626,5503996.01269652,5546829.720130874,5544392.539328474,1951502.8891832756,1951502.8891832756,362221672.18840647,152103545.5763431,210118126.61206338,210118126.61206338,210118126.61206338,256148964.177799,256148964.177799,210118126.61206338,210118126.61206338,55958871.681580625,53334763.427678846,0.0020272894091515584,-3063234.2972280043,105.5596694946289,2022-04-14,0,0,0,0,1,0,0,0,0,0,0,-18.044268406640484,0
