SMA_5,SMA_10,SMA_20,SMA_50,EMA_5,EMA_10,EMA_20,EMA_50,RSI,STOCH_K,STOCH_D,MACD,MACD_Signal,MACD_Hist,ADX,CCI,WILLR,ULTOSC,ROC,ATR,NATR,TRANGE,BB_Upper,BB_Middle,BB_Lower,MOM,PPO,APO,AROON_Up,AROON_Down,AROONOSC,BOP,Price_Change,High_Low_Ratio,Close_Open_Ratio,ROE,ROA,Debt_to_Equity,Profit_Margin,Operating_Margin,Asset_Turnover,Financial_Leverage,EPS_Calc,Free_Cash_Flow,Operating_Cash_Flow,Investing_Cash_Flow,Financing_Cash_Flow,Beginning_Cash_Position,End_Cash_Position,Changes_In_Cash,Cash_And_Cash_Equivalents,Net_Income,Pretax_Income,Total_Revenue,Operating_Revenue,Normalized_Income,Net_Income_Common_Stockholders,Net_Income_From_Continuing_Operations,Net_Income_From_Continuing_And_Discontinued_Operation,Net_Income_Including_Noncontrolling_Interests,Net_Income_Continuous_Operations,Diluted_NI_Availto_Com_Stockholders,Net_Income_From_Continuing_Operation_Net_Minority_Interest,Basic_EPS,Diluted_EPS,Diluted_Average_Shares,Basic_Average_Shares,Share_Issued,Ordinary_Shares_Number,Capital_Stock,Common_Stock,Total_Assets,Total_Liabilities_Net_Minority_Interest,Total_Equity_Gross_Minority_Interest,Common_Stock_Equity,Stockholders_Equity,Total_Capitalization,Invested_Capital,Net_Tangible_Assets,Tangible_Book_Value,Total_Debt,Long_Term_Debt_And_Capital_Lease_Obligation,Tax_Rate_For_Calcs,Tax_Effect_Of_Unusual_Items,Close,Date,Sector_basic-materials,Sector_communication-services,Sector_consumer-cyclical,Sector_consumer-defensive,Sector_energy,Sector_financial-services,Sector_healthcare,Sector_industrials,Sector_real-estate,Sector_technology,Sector_utilities,Target_3M_Return,Target_Direction
159.9753662109375,158.29452667236328,152.58544387817383,139.96320999145507,159.9753662109375,158.29452667236328,152.58544387817383,139.96320999145507,19.142490917329724,28.12561307803239,17.278207637164055,-4.477645506083263,-5.214309543107627,0.7366640370243642,39.26934014520594,-155.3329053323821,-96.97302369258442,44.42149332247877,-4.314552994187948,3.5578590346503063,2.466353743089846,3.0764160225730564,161.84703819707627,159.9753662109375,158.10369422479872,-6.9359283447265625,-4.253708322244103,-6.416842436179138,100.0,21.42857142857143,-78.57142857142857,0.6147886027774722,0.40374254723319525,1.0150812276873455,1.009247347684716,0.22445796287630634,0.06739731160133015,1.1645609109343316,0.08564456612308058,1.0,0.7869420636035783,3.396595609290487,6.010860484544695,7408716.412107663,9716553.346525751,-14954285.688250901,578514.3797867445,11358787.71495264,6251687.652534175,-4659217.9619384045,6251687.652534175,8951421.424872316,11290361.282934852,104518264.61480518,104518264.61480518,8764082.295177072,8951421.424872316,8963862.594330095,8951421.424872316,9082053.704179,8963862.594330095,8951421.424872316,8833230.315023411,0.03769674345707174,0.03738571422062725,1489207.9840962004,1478010.931584199,3615068.7788548716,1467479.6433733916,6027746.602294144,6027746.602294144,132815704.54652454,92935535.8496125,39880168.696912035,39102595.605800815,39102595.605800815,79984278.4440641,80040263.7066241,-17075505.0808023,-17075505.0808023,46442885.585890695,45192548.05538386,0.0012814404541512834,17940.16635811797,160.756591796875,2021-12-31,1,0,0,0,0,0,0,0,0,0,0,-20.8884304110051,0
159.9753662109375,158.29452667236328,152.58544387817383,139.96320999145507,159.9753662109375,158.29452667236328,152.58544387817383,139.96320999145507,19.142490917329724,28.12561307803239,17.278207637164055,-4.477645506083263,-5.214309543107627,0.7366640370243642,39.26934014520594,-155.3329053323821,-96.97302369258442,44.42149332247877,-4.314552994187948,3.5578590346503063,2.466353743089846,3.0764160225730564,161.84703819707627,159.9753662109375,158.10369422479872,-6.9359283447265625,-4.253708322244103,-6.416842436179138,100.0,21.42857142857143,-78.57142857142857,-0.4545450341935328,-0.01067046315715936,1.0194564178991954,0.9912841374386833,0.22445796287630634,0.06739731160133015,1.1645609109343316,0.08564456612308058,1.0,0.7869420636035783,3.396595609290487,6.010860484544695,7488623.493189581,9821351.718188183,-15115575.883818433,584753.9755387331,11481298.487459425,6319115.542112115,-4709470.190091517,6319115.542112115,9047967.427959535,11412134.03873979,105645551.58066443,105645551.58066443,8858607.742719488,9047967.427959535,9060542.782272197,9047967.427959535,9180008.648242475,9060542.782272197,9047967.427959535,8928501.561989257,0.0381033235673626,0.03778893970954608,1505269.9112255129,1493952.0923441178,3654059.2838169164,1483307.2183980565,6092759.164484219,6092759.164484219,134248194.9648117,93937896.71557711,40310298.249234594,39524338.604693286,39524338.604693286,80846952.87609708,80903541.97050406,-17259673.79412712,-17259673.79412712,46943797.64916323,45679974.54074081,0.0012952614942040753,18133.660918857055,159.04124450683594,2022-01-03,1,0,0,0,0,0,0,0,0,0,0,-21.77113012496394,0
159.9753662109375,158.29452667236328,152.58544387817383,139.96320999145507,159.9753662109375,158.29452667236328,152.58544387817383,139.96320999145507,19.142490917329724,28.12561307803239,17.278207637164055,-4.477645506083263,-5.214309543107627,0.7366640370243642,39.26934014520594,-155.3329053323821,-96.97302369258442,44.42149332247877,-4.314552994187948,3.5578590346503063,2.466353743089846,2.507745418670396,161.84703819707627,159.9753662109375,158.10369422479872,-6.9359283447265625,-4.253708322244103,-6.416842436179138,100.0,21.42857142857143,-78.57142857142857,0.342006443854512,0.0038101581254479377,1.0157956687798102,1.0054012690603844,0.22445796287630634,0.06739731160133015,1.1645609109343316,0.08564456612308058,1.0,0.7869420636035783,3.396595609290487,6.010860484544695,7460198.955521742,9784072.853505425,-15058201.754050603,582534.4272573652,11437718.969590848,6295130.101007012,-4691594.473287812,6295130.101007012,9013624.094874715,11368817.04808729,105244553.19116399,105244553.19116399,8824983.161420062,9013624.094874715,9026151.716966273,9013624.094874715,9145164.126836056,9026151.716966273,9013624.094874715,8894611.685004931,0.03795869493741541,0.0376455043851265,1499556.3643592822,1488281.5044768816,3640189.5858880742,1477677.0352354664,6069632.903359,6069632.903359,133738629.63840866,93581337.02392513,40157292.614483535,39374316.233761266,39374316.233761266,80540082.42661507,80596456.72602709,-17194161.32066094,-17194161.32066094,46765613.267779455,45506587.24757805,0.001290345075430293,18064.8310560241,159.647216796875,2022-01-04,1,0,0,0,0,0,0,0,0,0,0,-23.164277849567597,0
159.9753662109375,158.29452667236328,152.58544387817383,139.96320999145507,159.9753662109375,158.29452667236328,152.58544387817383,139.96320999145507,19.142490917329724,28.12561307803239,17.278207637164055,-4.477645506083263,-5.214309543107627,0.7366640370243642,39.26934014520594,-155.3329053323821,-96.97302369258442,44.42149332247877,-4.314552994187948,3.5578590346503063,2.466353743089846,5.677392431062117,161.84703819707627,159.9753662109375,158.10369422479872,-6.9359283447265625,-4.253708322244103,-6.416842436179138,100.0,21.42857142857143,-78.57142857142857,0.1674880673490089,0.010803009565463428,1.0355662661253002,1.0059275003580157,0.22445796287630634,0.06739731160133015,1.1645609109343316,0.08564456612308058,1.0,0.7869420636035783,3.396595609290487,6.010860484544695,7380467.69244269,9679505.06767043,-14897266.442176513,576308.5603670614,11315477.755164023,6227850.571708567,-4641452.814139022,6227850.571708567,8917290.520088186,11247312.226518458,104119746.57298243,104119746.57298243,8730665.696389107,8917290.520088186,8929684.252569199,8917290.520088186,9047424.711138815,8929684.252569199,8917290.520088186,8799550.061518572,0.03755300941746658,0.03724316610544128,1483529.7779771453,1472375.4187442344,3601284.87097893,1461884.28531758,6004763.38705035,6004763.38705035,132309291.1010444,92581181.63316019,39728109.467884205,38953501.18782095,38953501.18782095,79679306.12042663,79735077.91659118,-17010397.83018907,-17010397.83018907,46265803.351618074,45020233.23727636,0.0012765544455442435,17871.762237619412,161.37188720703125,2022-01-05,1,0,0,0,0,0,0,0,0,0,0,-22.280394013881686,0
159.9753662109375,158.29452667236328,152.58544387817383,139.96320999145507,159.9753662109375,158.29452667236328,152.58544387817383,139.96320999145507,19.142490917329724,28.12561307803239,17.278207637164055,-4.477645506083263,-5.214309543107627,0.7366640370243642,39.26934014520594,-155.3329053323821,-96.97302369258442,44.42149332247877,-4.314552994187948,3.5578590346503063,2.466353743089846,3.1789639284052953,161.84703819707627,159.9753662109375,158.10369422479872,-6.9359283447265625,-4.253708322244103,-6.416842436179138,100.0,21.42857142857143,-78.57142857142857,-0.7595333768872057,-0.014327132810901366,1.020071832799813,0.985046986338623,0.22445796287630634,0.06739731160133015,1.1645609109343316,0.08564456612308058,1.0,0.7869420636035783,3.396595609290487,6.010860484544695,7487745.618371341,9820200.382784244,-15113803.918190349,584685.4261196766,11479952.56015623,6318374.766131989,-4708918.1092864275,6318374.766131989,9046906.75469048,11410796.219432397,105633166.98562156,105633166.98562156,8857569.267668756,9046906.75469048,9059480.634822085,9046906.75469048,9178932.49607234,9059480.634822085,9046906.75469048,8927454.893440222,0.03809885679876602,0.03778450979547587,1505093.451753232,1493776.9596347865,3653630.9265049836,1483133.3335638237,6092044.923763081,6092044.923763081,134232457.3449593,93926884.58309643,40305572.76186287,39519705.25363749,39519705.25363749,80837475.36609463,80894057.82668686,-17257650.48062916,-17257650.48062916,46938294.531285,45674619.5780586,0.0012951096535554125,18131.535149775777,159.0598907470703,2022-01-06,1,0,0,0,0,0,0,0,0,0,0,-21.5272824668949,0
159.0934631347656,158.29452667236328,152.58544387817383,139.96320999145507,158.76593627929688,158.29452667236328,152.58544387817383,139.96320999145507,19.142490917329724,28.12561307803239,17.278207637164055,-4.477645506083263,-5.214309543107627,0.7366640370243642,39.26934014520594,-155.3329053323821,-96.97302369258442,44.42149332247877,-4.314552994187948,3.5578590346503063,2.466353743089846,2.9738564541098356,162.3238628958644,159.0934631347656,155.86306337366682,-6.9359283447265625,-4.253708322244103,-6.416842436179138,100.0,21.42857142857143,-78.57142857142857,-0.8831118002883236,-0.017055301108992227,1.0183957592175195,0.9840404501624991,0.22445796287630634,0.06739731160133015,1.1645609109343316,0.08564456612308058,1.0,0.7869420636035783,3.396595609290487,6.010860484544695,7617667.226670305,9990592.953869872,-15376047.03015568,594830.4383546083,11679143.875650695,6428006.349961089,-4790623.6379312,6428006.349961089,9203881.72894926,11608787.58724316,107466032.52939922,107466032.52939922,9011259.003341869,9203881.72894926,9216673.781386994,9203881.72894926,9338198.279545462,9216673.781386994,9203881.72894926,9082357.230790792,0.03875991888633253,0.0384401175753892,1531208.676796701,1519695.829602741,3717025.9228491047,1508867.5235108812,6197749.406081885,6197749.406081885,136561555.79902408,95556631.70986931,41004924.089154765,40205420.81179642,40205420.81179642,82240105.12218873,82297669.35815853,-17557091.970789243,-17557091.970789243,47752731.750059195,46467130.48006698,0.0013175814010865515,18446.13961521172,156.34707641601562,2022-01-07,1,0,0,0,0,0,0,0,0,0,0,-20.74032715221266,0
158.2712188720703,158.29452667236328,152.58544387817383,139.96320999145507,157.48729858398437,158.29452667236328,152.58544387817383,139.96320999145507,19.142490917329724,28.12561307803239,17.278207637164055,-4.477645506083263,-5.214309543107627,0.7366640370243642,39.26934014520594,-155.3329053323821,-96.97302369258442,44.42149332247877,-4.314552994187948,3.5578590346503063,2.466353743089846,2.6196589802128187,162.91840559038087,158.2712188720703,153.62403215375974,-6.9359283447265625,-4.253708322244103,-6.416842436179138,100.0,21.42857142857143,-78.57142857142857,-0.3153808232684259,-0.00906350956563895,1.0157671691919392,0.9950901617124709,0.22445796287630634,0.06739731160133015,1.1645609109343316,0.08564456612308058,1.0,0.7869420636035783,3.396595609290487,6.010860484544695,7687341.52007181,10081970.994418276,-15516682.6316143,600271.0003078743,11785966.092066435,6486799.519456062,-4834440.636888149,6486799.519456062,9288064.187559474,11714966.296331095,108448960.7222893,108448960.7222893,9093679.655889884,9288064.187559474,9300973.241329536,9288064.187559474,9423609.252145123,9300973.241329536,9288064.187559474,9165428.176743887,0.03911443292328729,0.038791706579035745,1545213.736276399,1533595.5878833435,3751023.3589438275,1522668.241684685,6254436.551594948,6254436.551594948,137810603.52229488,96430631.66236174,41379971.859933145,40573155.99930428,40573155.99930428,82992306.68772739,83050397.42969267,-17717676.29940984,-17717676.29940984,48189497.72364075,46892137.819749534,0.0013296325383163666,18614.855536429135,154.93002319335938,2022-01-10,1,0,0,0,0,0,0,0,0,0,0,-18.97037118454002,0
157.8162841796875,158.29452667236328,152.58544387817383,139.96320999145507,157.44904683430988,158.29452667236328,152.58544387817383,139.96320999145507,19.142490917329724,28.12561307803239,17.278207637164055,-4.477645506083263,-5.214309543107627,0.7366640370243642,39.26934014520594,-155.3329053323821,-96.97302369258442,44.42149332247877,-4.314552994187948,3.5578590346503063,2.466353743089846,3.8595002830209637,162.27721233905544,157.8162841796875,153.35535602031956,-6.9359283447265625,-4.253708322244103,-6.416842436179138,100.0,21.42857142857143,-78.57142857142857,0.4999981571508115,0.01576531192119668,1.0251091658602929,1.0124144896079816,0.22445796287630634,0.06739731160133015,1.1645609109343316,0.08564456612308058,1.0,0.7869420636035783,3.396595609290487,6.010860484544695,7568029.179429387,9925492.50904173,-15275854.028000206,590954.4195524206,11603040.538738925,6386120.340324545,-4759407.099406054,6386120.340324545,9143907.631569175,11533142.704168208,106765765.13247065,106765765.13247065,8952540.069211747,9143907.631569175,9156616.32876385,9143907.631569175,9277348.95211327,9156616.32876385,9143907.631569175,9023175.008219756,0.038507352499867406,0.03818963507000051,1521231.0542026828,1509793.2267274747,3692805.134139915,1499035.4797652452,6157363.790820383,6157363.790820383,135671696.90176058,94933968.04422757,40737728.85753299,39943435.28286576,39943435.28286576,81704214.26457015,81761403.40194619,-17442686.899692416,-17442686.899692416,47441566.62772443,46164342.559659526,0.0013089958110515984,18325.941354722378,157.37254333496094,2022-01-11,1,0,0,0,0,0,0,0,0,0,0,-20.22203860216354,0
156.94928894042968,158.29452667236328,152.58544387817383,139.96320999145507,157.31166822645397,158.29452667236328,152.58544387817383,139.96320999145507,19.142490917329724,28.12561307803239,17.278207637164055,-4.477645506083263,-5.214309543107627,0.7366640370243642,39.26934014520594,-155.3329053323821,-96.97302369258442,44.42149332247877,-4.314552994187948,3.5578590346503063,2.466353743089846,2.3865486261785236,159.64470074240054,156.94928894042968,154.25387713845882,-6.9359283447265625,-4.253708322244103,-6.416842436179138,100.0,21.42857142857143,-78.57142857142857,-0.41406194120592615,-0.002132724788620699,1.0153265735335146,0.9937466958117859,0.22445796287630634,0.06739731160133015,1.1645609109343316,0.08564456612308058,1.0,0.7869420636035783,3.396595609290487,6.010860484544695,7584204.199728108,9946706.095697148,-15308502.851508288,592217.4564019429,11627839.52032202,6399769.286924222,-4769579.299409196,6399769.286924222,9163450.750133289,11557792.294295983,106993953.78995103,106993953.78995103,8971674.18113328,9163450.750133289,9176186.60941075,9163450.750133289,9297177.27254663,9176186.60941075,9163450.750133289,9042460.086997408,0.03858965361070724,0.03827125712877072,1524482.3555120982,1513020.0821623832,3700697.703868146,1502239.342850183,6170523.819929921,6170523.819929921,135961665.71653637,95136868.8026347,40824796.91390168,40028805.709060356,40028805.709060356,81878839.29479766,81936150.66154623,-17479966.858315412,-17479966.858315412,47542962.68276243,46263008.82537758,0.0013117935055784972,18365.10907809896,157.0369110107422,2022-01-12,1,0,0,0,0,0,0,0,0,0,0,-21.016990506114187,0
156.61368713378906,158.29452667236328,152.58544387817383,139.96320999145507,157.3350727222584,158.29452667236328,152.58544387817383,139.96320999145507,19.142490917329724,45.676808231504616,29.57962438472562,-4.477645506083263,-5.214309543107627,0.7366640370243642,39.26934014520594,-155.3329053323821,-96.97302369258442,44.42149332247877,-4.314552994187948,3.5578590346503063,2.466353743089846,2.6848748260724165,158.45779334246242,156.61368713378906,154.7695809251157,-6.9359283447265625,-4.253708322244103,-6.416842436179138,100.0,21.42857142857143,-78.57142857142857,-0.20485949222228317,0.002196749164923517,1.017117413865156,0.9965173465253716,0.22445796287630634,0.06739731160133015,1.1645609109343316,0.08564456612308058,1.0,0.7869420636035783,3.396595609290487,6.010860484544695,7567580.124409321,9924903.572063273,-15274947.623073053,590919.354802743,11602352.06311622,6385741.414803835,-4759124.696207037,6385741.414803835,9143365.070549969,11532458.375989014,106759430.10102889,106759430.10102889,8952008.863138791,9143365.070549969,9156073.013664005,9143365.070549969,9276798.473247362,9156073.013664005,9143365.070549969,9022639.610966612,0.03850506763553357,0.03818736905768263,1521140.7907502865,1509703.641947653,3692586.018615345,1498946.5333048806,6156998.43875116,6156998.43875116,135663646.71390712,94928335.06186,40735311.65204715,39941065.207419805,39941065.207419805,81699366.28014697,81756552.02416013,-17441651.924016442,-17441651.924016442,47438751.64470192,46161603.361741155,0.0013089181407458606,18324.853970442047,157.3818817138672,2022-01-13,1,0,0,0,0,0,0,0,0,0,0,-21.65394841412002,0
156.10840454101563,157.60093383789064,152.58544387817383,139.96320999145507,156.16360296555507,157.48109699596057,152.58544387817383,139.96320999145507,19.142490917329724,39.1213635829524,37.6412616308298,-4.477645506083263,-5.214309543107627,0.7366640370243642,39.26934014520594,-155.3329053323821,-96.97302369258442,44.42149332247877,-4.314552994187948,3.5578590346503063,2.466353743089846,4.334984518199519,159.0347342769996,156.10840454101563,153.18207480503168,-6.9359283447265625,-4.253708322244103,-6.416842436179138,100.0,21.42857142857143,-78.57142857142857,-0.13076751528809746,-0.022627879543296703,1.0237559188571106,0.9969186482764648,0.22445796287630634,0.06739731160133015,1.1645609109343316,0.08564456612308058,1.0,0.7869420636035783,3.396595609290487,6.010860484544695,7742782.882811477,10154682.50457727,-15628589.462870523,604600.1747283522,11870966.871548075,6533582.533354773,-4869306.783564901,6533582.533354773,9355050.015420416,11799455.022924293,109231098.23425563,109231098.23425563,9159263.576042792,9355050.015420416,9368052.16971565,9355050.015420416,9491572.635520367,9368052.16971565,9355050.015420416,9231529.5496157,0.03939652751455714,0.03907147365717631,1556357.8691394357,1544655.9302737257,3778075.864175341,1533649.7756908163,6299543.756040572,6299543.756040572,138804498.17876396,97126092.58539335,41678405.5933706,40865770.949918516,40865770.949918516,83590849.9640554,83649359.65838395,-17845456.770207815,-17845456.770207815,48537041.984106205,47230325.47743525,0.001339221892409038,18749.106493726533,153.82066345214844,2022-01-14,1,0,0,0,0,0,0,0,0,0,0,-21.6897116506036,0
155.66092529296876,156.96607208251953,152.58544387817383,139.96320999145507,155.00661096141172,156.61046607908136,152.58544387817383,139.96320999145507,19.142490917329724,35.771783846301766,40.18998522025293,-4.477645506083263,-5.214309543107627,0.7366640370243642,39.26934014520594,-155.3329053323821,-96.97302369258442,44.42149332247877,-3.9918057566746823,3.5578590346503063,2.466353743089846,4.400216142523021,159.6591271584973,155.66092529296876,151.6627234274402,-6.3486175537109375,-4.253708322244103,-6.416842436179138,100.0,21.42857142857143,-78.57142857142857,0.2109562469168802,-0.0073334523054787715,1.0227726099593397,1.0047232793123042,0.22445796287630634,0.06739731160133015,1.1645609109343316,0.08564456612308058,1.0,0.7869420636035783,3.396595609290487,6.010860484544695,7799983.691194364,10229701.53286784,-15744047.685668558,609066.7365920033,11958665.172225785,6581850.218010358,-4905279.416208714,6581850.218010358,9424161.655439707,11886625.02058587,110038057.07762192,110038057.07762192,9226928.81845901,9424161.655439707,9437259.864828782,9424161.655439707,9561692.854024997,9437259.864828782,9424161.655439707,9299728.66624349,0.039687574448898276,0.03936011921417139,1567855.663872318,1556067.2754221503,3805986.8874900267,1544979.81145102,6346082.449007002,6346082.449007002,139829934.33307377,97843624.13639279,41986310.196681,41167672.10986379,41167672.10986379,84208388.16236535,84267330.1046162,-17977292.3865059,-17977292.3865059,48895615.64941824,47579245.60581617,0.0013491155670747599,18887.61793904664,152.692626953125,2022-01-18,1,0,0,0,0,0,0,0,0,0,0,-19.958890217754526,0
154.30730285644532,156.0617935180664,152.58544387817383,139.96320999145507,153.5392176917224,155.51845972876544,152.58544387817383,139.96320999145507,19.142490917329724,18.660196352272305,31.184447927175487,-4.477645506083263,-5.214309543107627,0.7366640370243642,39.26934014520594,-155.3329053323821,-96.97302369258442,44.42149332247877,-5.664230060481867,3.5578590346503063,2.466353743089846,3.570505949749986,159.48100952506218,154.30730285644532,149.13359618782846,-9.04278564453125,-4.253708322244103,-6.416842436179138,100.0,21.42857142857143,-78.57142857142857,-0.9712792277383122,-0.013675812922010366,1.023723995125959,0.9774913709412725,0.22445796287630634,0.06739731160133015,1.1645609109343316,0.08564456612308058,1.0,0.7869420636035783,3.396595609290487,6.010860484544695,7908133.850293191,10371540.784347577,-15962345.739802545,617511.7112319621,12124477.254941534,6673110.427829267,-4973293.244223006,6673110.427829267,9554831.746911757,12051438.235333452,111563782.49590781,111563782.49590781,9354864.191046577,9554831.746911757,9568111.56865868,9554831.746911757,9694269.875254458,9568111.56865868,9554831.746911757,9428673.440315979,0.04023785989317946,0.03990586434950636,1589594.6631067926,1577642.823534561,3858758.5474968012,1566401.6270634728,6434073.636384636,6434073.636384636,141768737.05928624,99200268.44952165,42568468.609764606,41738479.75058186,41738479.75058186,85375974.01097384,85435733.208835,-18226555.347653072,-18226555.347653072,49573574.58126697,48238952.49570112,0.001367821639933163,19149.502959064284,150.60443115234375,2022-01-19,1,0,0,0,0,0,0,0,0,0,0,-20.29077066978237,0
152.67586975097657,154.8125793457031,152.58544387817383,139.96320999145507,151.98606028894775,154.31142077506235,152.58544387817383,139.96320999145507,19.142490917329724,16.215444198626162,23.54914146573341,-4.477645506083263,-5.214309543107627,0.7366640370243642,39.26934014520594,-155.3329053323821,-96.97302369258442,44.42149332247877,-7.741213131879709,3.5578590346503063,2.466353743089846,3.3840589441699933,158.48336830644587,152.67586975097657,146.86837119550728,-12.492141723632812,-4.253708322244103,-6.416842436179138,100.0,21.42857142857143,-78.57142857142857,-0.41046928069408495,-0.011451759126533956,1.0228087026203316,0.9907562164489346,0.22445796287630634,0.06739731160133015,1.1645609109343316,0.08564456612308058,1.0,0.7869420636035783,3.396595609290487,6.010860484544695,7999745.0031428775,10491689.080528274,-16147260.27502559,624665.2269456654,12264932.305406293,6750414.549251546,-5030905.96755165,6750414.549251546,9665518.941664651,12191047.171036374,112856184.33485024,112856184.33485024,9463234.877420612,9665518.941664651,9678952.602459183,9665518.941664651,9806572.380007222,9678952.602459183,9665518.941664651,9537899.164116614,0.04070399220742723,0.04036815068756397,1608009.1971052936,1595918.9023902162,3903460.031538028,1584547.4831652367,6508608.6549499985,6508608.6549499985,143411045.81200972,100349446.13514239,43061599.67686733,42221995.87720917,42221995.87720917,86365005.2480362,86425456.72161159,-18437699.44049303,-18437699.44049303,50147855.74598213,48797772.836131826,0.0013836670618366353,19371.338865712896,148.87974548339844,2022-01-20,1,0,0,0,0,0,0,0,0,0,0,-20.4863224625891,0
150.0506591796875,153.3321731567383,152.58544387817383,139.96320999145507,149.40931647843914,152.48313133549135,152.58544387817383,139.96320999145507,19.142490917329724,6.799026997627259,13.891555849508572,-4.477645506083263,-5.214309543107627,0.7366640370243642,39.26934014520594,-185.2457085393078,-97.5377677145775,44.42149332247877,-9.307224983065765,3.5578590346503063,2.466353743089846,5.1553039601563455,156.77081909897288,150.0506591796875,143.33049926040212,-14.804061889648438,-4.253708322244103,-6.416842436179138,100.0,21.42857142857143,-78.57142857142857,-0.5384604373802983,-0.03105806374777942,1.0345722377528594,0.9817905265777976,0.22445796287630634,0.06739731160133015,1.1645609109343316,0.08564456612308058,1.0,0.7869420636035783,3.396595609290487,6.010860484544695,8256165.518116766,10827985.339461284,-16664837.872000592,644687.987560755,12658067.368666008,6966789.542995256,-5192164.544978554,6966789.542995256,9975333.484945446,12581813.950782478,116473629.75264308,116473629.75264308,9766565.491038138,9975333.484945446,9989197.74274245,9975333.484945446,10120908.191814004,9989197.74274245,9975333.484945446,9843623.035873894,0.04200870112492661,0.04166209468000148,1659551.6583015565,1647073.8262842516,4028579.9236188047,1635337.9122944379,6717232.902649158,6717232.902649158,148007884.11193204,103566005.74363098,44441878.36830108,43575362.25598824,43575362.25598824,89133313.37694825,89195702.53703478,-19028693.826390028,-19028693.826390028,51755274.356221475,50361916.447622426,0.0014280185530915648,19992.25974328191,144.25582885742188,2022-01-21,1,0,0,0,0,0,0,0,0,0,0,-15.894023133187716,0
148.19176025390624,152.15008239746095,152.58544387817383,139.96320999145507,147.7816005933735,151.03641087871878,152.58544387817383,139.96320999145507,20.013451957456102,15.082280009649073,12.698917068634161,-4.477645506083263,-5.214309543107627,0.7366640370243642,39.26934014520594,-176.93577046442317,-79.07063045599104,44.42149332247877,-7.560683489417997,3.735888423210227,2.5849217851884516,6.050270474489196,154.85390537863566,148.19176025390624,141.52961512917682,-11.820907592773438,-4.253708322244103,-6.416842436179138,100.0,14.285714285714286,-85.71428571428572,0.7750394989278836,0.0018740314894831744,1.0435190104062217,1.0335333251953125,0.22445796287630634,0.06739731160133015,1.1645609109343316,0.08564456612308058,1.0,0.7869420636035783,3.396595609290487,6.010860484544695,8240722.145320354,10807731.310655242,-16633665.858396415,643482.0818764004,12634390.123723732,6953757.981567553,-5182452.465864773,6953757.981567553,9956674.363657422,12558279.339845879,116255762.79233634,116255762.79233634,9748296.8757242,9956674.363657422,9970512.68799885,9956674.363657422,10101976.769242415,9970512.68799885,9956674.363657422,9825210.282413855,0.04193012275452673,0.04158416464599104,1656447.4236689275,1643992.9317616425,4021044.3598678038,1632278.9701048401,6704668.143421849,6704668.143421849,147731031.50691426,103372282.83046691,44358748.67644735,43493853.405108094,43493853.405108094,88966587.1910404,89028859.65057682,-18993100.158609882,-18993100.158609882,51658464.7665506,50267713.17023709,0.0014253474071670804,19954.863700339127,144.5261688232422,2022-01-24,1,0,0,0,0,0,0,0,0,0,0,-14.71738290630361,0
146.36455993652345,151.0127426147461,152.58544387817383,139.96320999145507,146.37327551765264,149.67644987644462,152.58544387817383,139.96320999145507,19.214096319385924,23.58908901967908,15.1567986756518,-4.477645506083263,-5.214309543107627,0.7366640370243642,39.26934014520594,-140.27272417688232,-82.75990620481309,44.42149332247877,-7.340990204948172,3.858584449781681,2.68784839427542,5.453632795210581,152.02237516591705,146.36455993652345,140.70674470712984,-11.373397827148438,-4.253708322244103,-6.416842436179138,92.85714285714286,7.142857142857143,-85.71428571428572,0.30769331090157714,-0.006708428410753919,1.039059829591006,1.0118273409743248,0.22445796287630634,0.06739731160133015,1.1645609109343316,0.08564456612308058,1.0,0.7869420636035783,3.396595609290487,6.010860484544695,8296377.801872785,10880723.86777942,-16746005.235686125,647827.9895668925,12719719.451066084,7000721.822739,-5217453.378339812,7000721.822739,10023919.1073845,12643094.635095807,117040923.44841859,117040923.44841859,9814134.2930426,10023919.1073845,10037850.892106367,10023919.1073845,10170202.846964119,10037850.892106367,10023919.1073845,9891567.152526746,0.042213307707262025,0.041865013089215315,1667634.6312076782,1655096.0249579963,4048201.4293489023,1643302.950304136,6749949.697745364,6749949.697745364,148728767.79830885,104070431.87235886,44658335.925949976,43787599.380833186,43787599.380833186,89567443.97689359,89630137.00814201,-19121374.530764733,-19121374.530764733,52007352.3667357,50607208.00218789,0.0014349738263524717,20089.6335689346,143.55662536621094,2022-01-25,1,0,0,0,0,0,0,0,0,0,0,-13.196112254862197,0
144.86177673339844,149.58453979492188,152.58544387817383,139.96320999145507,145.27902205734134,148.47900719649445,152.58544387817383,139.96320999145507,18.82482270113324,32.8693115419195,23.846893523749213,-4.477645506083263,-5.214309543107627,0.7366640370243642,39.26934014520594,-110.22705516031702,-81.96110898453394,44.42149332247877,-9.075298584864,3.865974666161477,2.701768640966631,3.9620474790988283,149.00565569966926,144.86177673339844,140.71789776712762,-14.282028198242188,-4.253708322244103,-6.416842436179138,85.71428571428572,0.0,-85.71428571428572,-0.3294103285845598,-0.003246873686972962,1.0279311244592086,0.9909613667635023,0.22445796287630634,0.06739731160133015,1.1645609109343316,0.08564456612308058,1.0,0.7869420636035783,3.396595609290487,6.010860484544695,8323402.839538559,10916167.28409675,-16800554.514064398,649938.2569916759,12761153.303944089,7023526.325555207,-5234448.97297597,7023526.325555207,10056571.524849694,12684278.886450449,117422178.42982945,117422178.42982945,9846103.346918928,10056571.524849694,10070548.69166672,10056571.524849694,10203331.776428461,10070548.69166672,10056571.524849694,9923788.440087954,0.04235081545558662,0.04200138628516099,1673066.867997927,1660487.4178626041,4061388.243970833,1648655.927855161,6771937.322848752,6771937.322848752,149213244.35515347,104409436.1231789,44803808.23197456,43930235.30591048,43930235.30591048,89859205.46665558,89922102.71733218,-19183661.45636721,-19183661.45636721,52176763.7279554,50772058.46284436,0.0014396481821536047,20155.074550150464,143.09051513671875,2022-01-26,1,0,0,0,0,0,0,0,0,0,0,-13.109554917153476,0
143.6852813720703,148.18057556152343,152.58544387817383,139.96320999145507,144.51843759714683,147.48232746563323,152.58544387817383,139.96320999145507,18.743013373075442,34.37755600432589,30.278652188641484,-4.477645506083263,-5.214309543107627,0.7366640370243642,39.26934014520594,-92.49660697463784,-80.6364940997278,44.42149332247877,-8.94034545357555,3.8888187099985645,2.7195055863543476,4.1857912798807035,144.9104431899712,143.6852813720703,142.4601195541694,-14.039642333984375,-4.253708322244103,-6.416842436179138,78.57142857142857,0.0,-78.57142857142857,-0.4187088157630941,-0.0006516606629854982,1.0295395098234477,0.9878920278799403,0.22445796287630634,0.06739731160133015,1.1645609109343316,0.08564456612308058,1.0,0.7869420636035783,3.396595609290487,6.010860484544695,8328830.410685881,10923285.559606504,-16811509.913760584,650362.0723709378,12769474.668272391,7028106.265944005,-5237862.281783144,7028106.265944005,10063129.270341715,12692550.12207798,117498747.74168277,117498747.74168277,9852523.84914254,10063129.270341715,10077115.551467972,10063129.270341715,10209985.22216741,10077115.551467972,10063129.270341715,9930259.599642277,0.042378431812557876,0.042028774784401465,1674157.8508129301,1661570.1977992991,4064036.6167669124,1649730.9926475775,6776353.205671384,6776353.205671384,149310544.16335368,104477520.01313774,44833024.15021594,43958881.579824895,43958881.579824895,89917801.3607045,89980739.62577266,-19196170.845787358,-19196170.845787358,52210787.44431636,50805166.19112756,0.0014405869560044427,20168.217384062198,142.9972686767578,2022-01-27,1,0,0,0,0,0,0,0,0,0,0,-15.350117468243237,0
143.70206298828126,146.87636108398436,152.58544387817383,139.96320999145507,144.4588707109234,146.91094736978656,152.58544387817383,139.96320999145507,23.872455233409994,50.15575261332774,39.1342067198577,-4.477645506083263,-5.214309543107627,0.7366640370243642,39.26934014520594,-85.48941091984452,-74.09088541110185,44.42149332247877,-8.286941694535265,3.920019050698049,2.715828041427649,4.325623479791346,144.95988853809058,143.70206298828126,142.44423743847193,-13.042144775390625,-4.253708322244103,-6.416842436179138,71.42857142857143,28.571428571428573,-42.85714285714286,0.3534481908138163,0.009388069255737763,1.030881859498492,1.0107056554834624,0.22445796287630634,0.06739731160133015,1.1645609109343316,0.08564456612308058,1.0,0.7869420636035783,3.396595609290487,6.010860484544695,8251366.015081851,10821690.777126659,-16655150.210123232,644313.2152834694,12650708.936641024,6962739.584514912,-5189146.217713104,6962739.584514912,9969534.589171102,12574499.846661258,116405920.89454682,116405920.89454682,9760887.957004683,9969534.589171102,9983390.787349243,9969534.589171102,10115024.670041563,9983390.787349243,9969534.589171102,9837900.706478782,0.041984280479761556,0.04163787552530808,1658586.9219232537,1646116.3435629285,4026238.0154378973,1634387.25193571,6713328.017308407,6713328.017308407,147921843.65072426,103505800.39069928,44416043.26002498,43550030.87389128,43550030.87389128,89081498.08725646,89143850.97905809,-19017631.999495953,-19017631.999495953,51725187.798993364,50332639.88209038,0.0014271884123483302,19980.637772876624,144.33973693847656,2022-01-28,1,0,0,0,0,0,0,0,0,0,0,-18.367888023921893,0
143.9202117919922,146.0559860229492,151.8284599304199,139.96320999145507,144.8448847545479,146.67566836469751,151.92177425566175,139.96320999145507,28.496960464637816,71.26166364357863,51.931657420410744,-4.477645506083263,-5.214309543107627,0.7366640370243642,39.26934014520594,-53.16031850447287,-67.86362929781838,44.42149332247877,-5.333321561770299,3.865088974935474,2.6542857553467276,3.150997990022006,145.86488892173637,143.9202117919922,141.975534662248,-8.203750610351562,-4.253708322244103,-6.416842436179138,64.28571428571429,21.42857142857143,-42.85714285714286,0.769226949330067,0.008848401212375068,1.022071339273108,1.0169270230560692,0.22445796287630634,0.06739731160133015,1.1645609109343316,0.08564456612308058,1.0,0.7869420636035783,3.396595609290487,6.010860484544695,8178994.985932318,10726775.9597198,-16509071.323409986,638662.0769871583,12539752.17826399,6901670.8319580015,-5143633.286703028,6901670.8319580015,9882093.857898073,12464211.502491316,115384948.57567994,115384948.57567994,9675277.222300813,9882093.857898073,9895828.526220378,9882093.857898073,10026307.87528227,9895828.526220378,9882093.857898073,9751614.508836182,0.04161604501658257,0.04127267830852496,1644039.7981798463,1631678.5966897723,3990924.7123744255,1620052.3785056297,6654446.802156521,6654446.802156521,146624451.67476147,102597972.36761446,44026479.30714701,43168062.53700298,43168062.53700298,88300182.64409551,88361988.65154587,-18850832.2723629,-18850832.2723629,51271516.84716263,49891182.68077102,0.0014146708371973614,19805.391720763062,145.61691284179688,2022-01-31,1,0,0,0,0,0,0,0,0,0,0,-16.699438864525863,0
144.54668579101562,145.45562286376952,151.21084747314453,139.96320999145507,145.4595882901413,146.678091454994,151.4234143609633,139.96320999145507,32.21910256005875,89.3357698918848,70.25106204959705,-4.477645506083263,-5.214309543107627,0.7366640370243642,39.26934014520594,-28.38940451496346,-62.6363678013094,44.42149332247877,-3.93184118421116,3.749491014107917,2.5560820052465925,2.2467175233496732,147.41706282983915,144.54668579101562,141.67630875219209,-6.003631591796875,-4.253708322244103,-6.416842436179138,57.142857142857146,14.285714285714286,-42.85714285714286,0.4315381595775666,0.007362348909951022,1.0155193751452405,1.0066534998475194,0.22445796287630634,0.06739731160133015,1.1645609109343316,0.08564456612308058,1.0,0.7869420636035783,3.396595609290487,6.010860484544695,8119218.466704322,10648378.87908661,-16388414.100719724,633994.389087743,12448104.886819556,6851229.688528837,-5106040.832545372,6851229.688528837,9809870.170938304,12373116.303164018,114541652.96185225,114541652.96185225,9604565.063177373,9809870.170938304,9823504.458875675,9809870.170938304,9953030.194280697,9823504.458875675,9809870.170938304,9680344.435533281,0.041311892450233575,0.040971035251799306,1632024.266103287,1619753.4069596531,3961756.8759572306,1608212.159466412,6605812.505656161,6605812.505656161,145552840.87540218,101848130.89216001,43704709.98324216,42852566.98715648,42852566.98715648,87654837.14935699,87716191.44507515,-18713060.19404145,-18713060.19404145,50896796.87020527,49526550.9324995,0.0014043316575491943,19660.64320568872,146.68899536132812,2022-02-01,1,0,0,0,0,0,0,0,0,0,0,-16.517115154768184,0
145.3167236328125,145.08925018310546,150.57552185058594,139.96320999145507,145.95329364199526,146.72583925330474,150.9964895976052,139.96320999145507,33.099648522834876,91.18556972711615,83.92766775419318,-4.477645506083263,-5.214309543107627,0.7366640370243642,39.26934014520594,-9.67733464195243,-61.40908477189847,44.42149332247877,-2.432681946080717,3.6954215017446814,2.5149066204627486,2.992517841022618,148.27576819590675,145.3167236328125,142.35767906971827,-3.663726806640625,-4.253708322244103,-6.416842436179138,50.0,7.142857142857143,-42.85714285714286,-0.04361342580488688,0.0017159363846959153,1.0205875240608266,0.9991125799028703,0.22445796287630634,0.06739731160133015,1.1645609109343316,0.08564456612308058,1.0,0.7869420636035783,3.396595609290487,6.010860484544695,8105310.269902946,10630138.23810949,-16360340.796680674,632908.358607031,12426781.320606869,6839493.552688884,-5097294.199964154,6839493.552688884,9793065.89285503,12351921.192169476,114345443.4550036,114345443.4550036,9588112.472125895,9793065.89285503,9806676.82529819,9793065.89285503,9935980.68350823,9806676.82529819,9793065.89285503,9663762.034644991,0.04124112530278073,0.04090085199170168,1629228.6134464864,1616978.7742476407,3954970.398350306,1605457.2968766259,6594496.768711968,6594496.768711968,145303509.2969755,101673665.35041983,43629843.94655566,42779160.66885804,42779160.66885804,87504684.67708823,87565933.87308246,-18681004.778239787,-18681004.778239787,50809610.81032359,49441712.09978581,0.0014019260416456816,19626.964583039542,146.94070434570312,2022-02-02,1,0,0,0,0,0,0,0,0,0,0,-18.481691306228733,0
145.94133605957032,144.8133087158203,149.8129440307617,139.96320999145507,146.00897269817912,146.61574680916695,150.53209352264727,139.96320999145507,31.65620062298742,83.71235749156483,88.07789903685524,-4.477645506083263,-5.214309543107627,0.7366640370243642,39.26934014520594,-1.1456217748038615,-59.82039809421555,44.42149332247877,-1.853452035326908,3.6498747927765876,2.4978555499637163,3.0577675761913667,147.78744346546466,145.94133605957032,144.09522865367597,-2.7594146728515625,-4.253708322244103,-6.416842436179138,42.85714285714286,0.0,-42.85714285714286,0.10975632449129748,-0.005583024382584845,1.0210418185562846,1.0023020884966805,0.22445796287630634,0.06739731160133015,1.1645609109343316,0.08564456612308058,1.0,0.7869420636035783,3.396595609290487,6.010860484544695,8150816.477032191,10689819.762488902,-16452193.795789577,636461.7400201459,12496549.863191253,6877892.996991899,-5125912.29328053,6877892.996991899,9848047.78375258,12421269.442328654,114987421.03030635,114987421.03030635,9641943.678780034,9848047.78375258,9861735.133000325,9848047.78375258,9991764.950853903,9861735.133000325,9848047.78375258,9718017.965899002,0.04147266822066757,0.04113048448947394,1638375.7049550852,1626057.0906321148,3977175.063704778,1614470.9274294388,6631520.710532488,6631520.710532488,146119296.89430252,102244498.88065569,43874798.01364683,43019338.68566276,43019338.68566276,87995968.31375307,88057561.38536793,-18785886.842530113,-18785886.842530113,51094874.74183236,49719296.14243398,0.0014097969725177424,19737.157615248394,146.12033081054688,2022-02-03,1,0,0,0,0,0,0,0,0,0,0,-16.10254944005635,0
145.5982696533203,144.6501663208008,148.99116973876954,139.96320999145507,144.88078343452827,145.89004828154143,149.77898032117864,139.96320999145507,26.377301580280765,55.341443735281366,76.7464569846541,-4.477645506083263,-5.214309543107627,0.7366640370243642,39.26934014520594,-65.92190084058156,-76.08419263546712,44.42149332247877,-1.1309241110858403,3.6854915839174467,2.584053960691203,4.148509868748619,148.71064243585954,145.5982696533203,142.48589687078106,-1.6314239501953125,-4.253708322244103,-6.416842436179138,35.714285714285715,0.0,-35.714285714285715,-0.6165775253094228,-0.023924979391491852,1.0253463837449854,0.9846817937901824,0.22445796287630634,0.06739731160133015,1.1645609109343316,0.08564456612308058,1.0,0.7869420636035783,3.396595609290487,6.010860484544695,8350604.518032621,10951842.365379473,-16855460.33698608,652062.3175289956,12802857.976429526,7046479.882974629,-5251555.654077609,7046479.882974629,10089437.36477661,12725732.325969107,117805925.3669052,117805925.3669052,9878281.35666152,10089437.36477661,10103460.210314866,10089437.36477661,10236677.242928317,10103460.210314866,10089437.36477661,9956220.332163159,0.04248922198092164,0.042138650842465195,1678534.610929479,1665914.0499450467,4074661.2501417296,1654043.8934939033,6794068.663285986,6794068.663285986,149700887.54367295,104750656.17078704,44950231.37288592,44073803.5267448,44073803.5267448,90152873.96546048,90215976.77038264,-19246355.501259062,-19246355.501259062,52347282.394317,50937986.417722076,0.0014443530904405708,20220.943266167993,142.62440490722656,2022-02-04,1,0,0,0,0,0,0,0,0,0,0,-12.58937996688361,0
144.96993103027344,144.4450714111328,148.29757690429688,139.96320999145507,144.07892886520634,145.26917036245436,149.08338407407234,139.96320999145507,26.17669392105523,30.296316476277312,56.45003923437448,-4.477645506083263,-5.214309543107627,0.7366640370243642,39.26934014520594,-69.98460983884816,-77.07568891303741,44.42149332247877,-1.4190849403806105,3.579392333917936,2.512291148444959,2.2001020839242926,148.95867785827107,144.96993103027344,140.9811842022758,-2.0509490966796875,-4.253708322244103,-6.416842436179138,28.571428571428573,7.142857142857143,-21.42857142857143,0.038134031616724406,-0.0010460003725246692,1.0154804897185585,1.0005892126139453,0.22445796287630634,0.06739731160133015,1.1645609109343316,0.08564456612308058,1.0,0.7869420636035783,3.396595609290487,6.010860484544695,8359348.399572637,10963309.991714912,-16873109.61592999,652745.0891353948,12816263.793131515,7053858.221301847,-5257054.535079685,7053858.221301847,10100001.970600355,12739057.384739157,117929279.43712799,117929279.43712799,9888624.861950878,10100001.970600355,10114039.499398967,10100001.970600355,10247396.022985768,10114039.499398967,10100001.970600355,9966645.447013555,0.04253371225979024,0.042182774039824976,1680292.1971936938,1667658.4212749442,4078927.810150648,1655775.8356347946,6801182.7029268555,6801182.7029268555,149857638.6895679,104860340.12562148,44997298.56394641,44119953.01403324,44119953.01403324,90247272.64626782,90310441.52586156,-19266508.276093107,-19266508.276093107,52402095.00521352,50991323.36095315,0.001445865466256896,20242.116527596543,142.4752197265625,2022-02-07,1,0,0,0,0,0,0,0,0,0,0,-9.784951810253462,0
144.39193420410157,144.46930999755858,147.74102630615235,139.96320999145507,143.98562298696046,145.00186870209333,148.58011046991962,139.96320999145507,31.17842503556015,15.526333854608511,33.72136468872237,-4.477645506083263,-5.214309543107627,0.7366640370243642,39.26934014520594,-46.69329777296357,-62.49087448271302,44.42149332247877,0.16884338402318733,3.4415845559975264,2.393329777825558,1.6500834430322016,148.03973857607775,144.39193420410157,140.7441298321254,0.2423858642578125,-3.8632951992729194,-5.802695934589082,21.42857142857143,0.0,-21.42857142857143,0.30813860648320895,0.00929138067972013,1.011250661733178,1.0034478192498577,0.22445796287630634,0.06739731160133015,1.1645609109343316,0.08564456612308058,1.0,0.7869420636035783,3.396595609290487,6.010860484544695,8282393.528361382,10862383.451973533,-16717778.372947743,646736.0185874127,12698279.246673286,6988921.491186556,-5208658.902386797,6988921.491186556,10007022.911261149,12621783.588560795,116843640.69145922,116843640.69145922,9797591.707650626,10007022.911261149,10020931.212736147,10007022.911261149,10153060.076748628,10020931.212736147,10007022.911261149,9874894.047248667,0.042142153469244305,0.041794445932369355,1664823.6865572752,1652306.215229777,4041377.8302591294,1640533.0188391102,6738572.06463659,6738572.06463659,148478072.39634246,103895012.01823597,44583060.37810648,43713791.5359191,43713791.5359191,89416470.18276292,89479057.53940041,-19089143.77443492,-19089143.77443492,51919689.40616799,50521905.107930675,0.0014325550519248065,20055.770726947292,143.79901123046875,2022-02-08,1,0,0,0,0,0,0,0,0,0,0,-14.370731913329493,0
144.27447204589845,144.79559783935548,147.19006881713867,139.96320999145507,144.77487984286947,145.2476004934741,148.36804219227847,139.96320999145507,39.67210711666522,34.934367490696125,26.91900594052729,-4.477645506083263,-5.214309543107627,0.7366640370243642,39.26934014520594,82.62124154228461,-24.20427748870942,44.42149332247877,2.2802897975810366,3.4041826531443773,2.326001857874478,2.917957916053439,147.61096153954168,144.27447204589845,140.93798255225522,3.26287841796875,-3.448226627539699,-5.162432939578309,14.285714285714286,0.0,-14.285714285714286,0.5870979809216129,0.017763559723820377,1.0099467562956093,1.0058303668082627,0.22445796287630634,0.06739731160133015,1.1645609109343316,0.08564456612308058,1.0,0.7869420636035783,3.396595609290487,6.010860484544695,8137836.582210593,10672796.59228627,-16425994.243185783,635448.1965957894,12476649.537461413,6866940.189019014,-5117749.454303723,6866940.189019014,9832365.106466033,12401488.998079116,114804307.51830596,114804307.51830596,9626589.215189915,9832365.106466033,9846030.659080995,9832365.106466033,9975853.408923145,9846030.659080995,9832365.106466033,9702542.35662388,0.041406624423338534,0.041064985607964455,1635766.6480110965,1623467.6506576296,3970841.5492452835,1611899.9380212473,6620960.241949677,6620960.241949677,145886606.94103977,102081678.0337752,43804928.907264575,42950831.86882938,42950831.86882938,87855837.7615985,87917332.74836583,-18755970.96403701,-18755970.96403701,51013507.911657676,49640119.87385387,0.001407551919341211,19705.726870776954,146.3533935546875,2022-02-09,1,0,0,0,0,0,0,0,0,0,0,-17.809252565001863,0
143.728173828125,144.83475494384766,146.50766525268554,139.96320999145507,144.31286646913955,144.90964398951147,147.89383243317383,139.96320999145507,34.3704172127195,41.94681488458418,30.802505409962908,-4.477645506083263,-5.214309543107627,0.7366640370243642,38.610408044200426,0.034914688415619045,-53.33998358371113,44.42149332247877,0.2738311357589618,3.4613439671082777,2.4139563259084937,4.204441048638984,146.5281943991169,143.728173828125,140.9281532571331,0.391571044921875,-3.0526347480050284,-4.55109288142279,7.142857142857143,0.0,-7.142857142857143,-0.43459034807557084,-0.020256133192429582,1.0294694848632986,0.9874173033311413,0.22445796287630634,0.06739731160133015,1.1645609109343316,0.08564456612308058,1.0,0.7869420636035783,3.396595609290487,6.010860484544695,8306085.761707483,10893455.885631476,-16765600.47955062,648586.0418461763,12734603.359259332,7008913.678015131,-5223558.552072967,7008913.678015131,10035648.539963953,12657888.881191503,117177878.22687584,117177878.22687584,9825618.247101163,10035648.539963953,10049596.626885377,10035648.539963953,10182103.452638896,10049596.626885377,10035648.539963953,9903141.714210432,0.042262703371912125,0.041914001198876547,1669586.0044943504,1657032.7262650696,4052938.4094885984,1645225.852011215,6757848.113429514,6757848.113429514,148902801.92965278,104192209.3030309,44710592.626621895,43838837.194032945,43838837.194032945,89672250.8178294,89735017.2089758,-19143749.299653266,-19143749.299653266,52068208.4776726,50666425.74206957,0.0014366529529065838,20113.141340692175,143.3888397216797,2022-02-10,1,0,0,0,0,0,0,0,0,0,0,-16.634518556780787,0
143.15204162597655,144.37515563964843,145.6257583618164,139.96320999145507,142.78982561158782,143.9703894271429,147.1176335249177,139.96320999145507,29.202825228985347,32.82453241989101,36.568571598390406,-4.477645506083263,-5.214309543107627,0.7366640370243642,38.62182690733895,-143.34042753929006,-98.61546868265664,36.25670659642422,-3.184149520759616,3.5423895849479563,2.5349181910941163,4.595982616863779,147.42267422315663,143.15204162597655,138.88140902879647,-4.5959930419921875,-2.696789196323936,-3.9981388189853817,0.0,57.142857142857146,57.142857142857146,-0.6653130832299102,-0.02542105670337047,1.0329084040779193,0.9785872898803482,0.22445796287630634,0.06739731160133015,1.1645609109343316,0.08564456612308058,1.0,0.7869420636035783,3.396595609290487,6.010860484544695,8522742.89203413,11177602.348746693,-17202916.803064693,665503.8530303729,13066774.57670388,7191735.185973384,-5359810.601287627,7191735.185973384,10297419.833448457,12988059.067205664,120234362.7808207,120234362.7808207,10081911.08035316,10297419.833448457,10311731.744266314,10297419.833448457,10447694.89703596,10311731.744266314,10297419.833448457,10161456.68067881,0.043365089778108164,0.04300729200766173,1713135.7248975404,1700255.0051614686,4158655.8352872375,1688140.1587089929,6934120.791251949,6934120.791251949,152786803.93603754,106909973.80939537,45876830.12664215,44982335.70052606,44982335.70052606,92011274.64800574,92075678.2466861,-19643097.59750939,-19643097.59750939,53426363.08306198,51988016.0458673,0.0014741268142393204,20637.77539935049,139.74374389648438,2022-02-11,1,0,0,0,0,0,0,0,0,0,0,-15.872881117192081,0
142.48829040527343,143.72911071777344,144.89254837036134,139.96320999145507,141.57870494874084,143.09513019003452,146.35942686759665,139.96320999145507,28.460378613268833,14.543367185097367,29.77157149652415,-4.477645506083263,-5.214309543107627,0.7366640370243642,38.94331159481121,-199.94970153722454,-88.38244092387582,37.17568137391481,-4.436606361631112,3.454502310699771,2.4824591116784043,2.3119677454733676,147.86242146092695,142.48829040527343,137.1141593496199,-6.46044921875,-2.408766300978034,-3.5526894789475705,100.0,50.0,-50.0,-0.12499923090649066,-0.004202551449262182,1.01676012507319,0.9979275467656171,0.22445796287630634,0.06739731160133015,1.1645609109343316,0.08564456612308058,1.0,0.7869420636035783,3.396595609290487,6.010860484544695,8558711.316681867,11224775.043372862,-17275518.056509834,668312.4705721358,13121920.12112602,7222086.375537597,-5382430.542564835,7222086.375537597,10340877.90487423,13042872.409552973,120741786.35003254,120741786.35003254,10124459.64289842,10340877.90487423,10355250.21606933,10340877.90487423,10491787.172422778,10355250.21606933,10340877.90487423,10204340.948520783,0.04354810292115207,0.04318879514127458,1720365.6500534334,1707430.5699778437,4176206.5582108647,1695264.5953912374,6963384.774025802,6963384.774025802,153431608.16328678,107361164.62739472,46070443.53589207,45172174.08619834,45172174.08619834,92399588.67329593,92464264.07367389,-19725997.115274332,-19725997.115274332,53651837.69130716,52207420.41619964,0.0014803480530952685,20724.87274333376,139.15646362304688,2022-02-14,1,0,0,0,0,0,0,0,0,0,0,-16.017809902411884,0
142.00166015625,143.1967971801758,144.32621002197266,139.96320999145507,141.5077566276111,142.78071742554673,145.8838490692876,139.96320999145507,35.14109282982664,17.680499112642305,21.682799572543527,-4.477645506083263,-5.214309543107627,0.7366640370243642,38.285704461235035,-87.90877922204982,-67.2030574323926,42.95072740936073,-3.6288580222834543,3.451465581316678,2.4415128105713233,3.411988099336469,147.2521398847157,142.00166015625,136.75118042778433,-5.3231353759765625,-2.194696403018587,-3.2243119264260542,92.85714285714286,42.85714285714286,-50.0,-0.06046755901264694,0.015877066036181997,1.0142591452042085,0.999143408584353,0.22445796287630634,0.06739731160133015,1.1645609109343316,0.08564456612308058,1.0,0.7869420636035783,3.396595609290487,6.010860484544695,8424947.863107912,11049343.880919026,-17005520.28791891,657867.4653812224,12916838.621356044,7109212.932345468,-5298308.941618662,7109212.932345468,10179261.104124505,12839026.340504501,118854722.07887417,118854722.07887417,9966225.22684041,10179261.104124505,10193408.79155206,10179261.104124505,10327811.822113814,10193408.79155206,10179261.104124505,10044858.07356275,0.0428674929054861,0.042513800719797275,1693478.1850781145,1680745.2663933164,4110936.940929152,1668769.4329058293,6854554.558649511,6854554.558649511,151033637.13284385,105683225.08382218,45350412.04902168,44466181.58479961,44466181.58479961,90955482.47173932,91019147.06516331,-19417700.994316727,-19417700.994316727,52813317.16705598,51391474.58058689,0.0014572118050379763,20400.96527053167,141.36585998535156,2022-02-15,1,0,0,0,0,0,0,0,0,0,0,-17.982146575231422,0
141.04703674316406,142.66075439453124,143.87500228881837,139.96320999145507,141.53192991482666,142.56245543713055,145.47398501404666,139.96320999145507,35.76799102802234,30.862785134771723,21.028883810837097,-4.477645506083263,-5.214309543107627,0.7366640370243642,37.76121072792049,-82.34296710923478,-65.14765015436281,46.9228939682079,-3.648021071026031,3.35142800612899,2.3671574100812514,2.0509395286890424,144.03271898258362,141.04703674316406,138.0613545037445,-5.3604278564453125,-2.0814475444281975,-3.0472464928260194,85.71428571428572,35.714285714285715,-50.0,0.05908627470019274,0.0015167488382872296,1.0146325032187062,1.000856660203754,0.22445796287630634,0.06739731160133015,1.1645609109343316,0.08564456612308058,1.0,0.7869420636035783,3.396595609290487,6.010860484544695,8412188.685691437,11032610.182241835,-16979766.247189097,656871.1568172155,12897276.69191651,7098446.372057007,-5290284.908130048,7098446.372057007,10163845.103870679,12819582.2540134,118674722.33164361,118674722.33164361,9951131.859153396,10163845.103870679,10177971.365307609,10163845.103870679,10312170.848958436,10177971.365307609,10163845.103870679,10029645.620219849,0.042802572153895976,0.04244941561797275,1690913.4940004451,1678199.8587072087,4104711.1250986545,1666242.1620422467,6844173.666192278,6844173.666192278,150804903.96993944,105523172.93386236,45281731.03607708,44398839.696269,44398839.696269,90817734.77801889,90881302.95448507,-19388293.822185554,-19388293.822185554,52733333.94405732,51313644.66964592,0.0014550049280037246,20370.068992052147,141.5802764892578,2022-02-16,1,0,0,0,0,0,0,0,0,0,0,-18.74386828623484,0
140.267919921875,141.998046875,143.40567779541016,139.96320999145507,140.85237181496257,142.0044191058767,144.9043917379693,139.96320999145507,32.47748251913379,34.51906046111384,27.68744823617592,-4.477645506083263,-5.214309543107627,0.7366640370243642,37.47352969414424,-111.91839078186169,-85.15393612451108,41.24703142435236,-4.535354634465527,3.2784945345786194,2.350288922657109,2.3303594044238025,142.27549608047326,140.267919921875,138.26034376327675,-6.6270751953125,-2.0308640630279777,-2.959226559369995,78.57142857142857,28.571428571428573,-50.0,-0.5149993896484363,-0.014740901245391957,1.013441764165913,0.9931370018208266,0.22445796287630634,0.06739731160133015,1.1645609109343316,0.08564456612308058,1.0,0.7869420636035783,3.396595609290487,6.010860484544695,8538047.196239702,11197673.988687167,-17233808.110629927,666698.8994544856,13090238.606493449,7204649.397330731,-5369435.222488277,7204649.397330731,10315910.928118331,13011381.747418186,120450267.83477706,120450267.83477706,10100015.185581004,10315910.928118331,10330248.538859287,10315910.928118331,10466455.840898376,10330248.538859287,10315910.928118331,10179703.626079243,0.04344296054509873,0.04308452027657482,1716212.0056925146,1703308.1560256535,4166123.5407895357,1691171.5549223733,6946572.403993512,6946572.403993512,153061163.46508303,107101952.2349464,45959211.23013663,45063110.55882684,45063110.55882684,92176499.4536105,92241018.7019448,-19678370.741963044,-19678370.741963044,53522300.89599128,52081371.016525134,0.0014767739063185378,20674.83468845953,139.49325561523438,2022-02-17,1,0,0,0,0,0,0,0,0,0,0,-18.80204510475473,0
140.32825622558593,141.74014892578126,143.195157623291,139.96320999145507,140.58338968165472,141.6482384348153,144.44163304054737,139.96320999145507,34.202170660043855,36.894552760099195,34.09213278532821,-4.310782368665485,-5.033604108219199,0.722821739553714,37.21061239127124,-91.58498967401144,-79.86080894189908,36.778317769114786,-1.808231553264017,3.1626378801586434,2.2582943147095595,1.6565013726989548,142.28672368622776,140.32825622558593,138.3697887649441,-2.5789794921875,-1.9856135457280117,-2.8803144601675115,71.42857142857143,21.42857142857143,-50.0,0.16383903170744432,0.003958397826255844,1.0118974858025163,1.0019417025395487,0.22445796287630634,0.06739731160133015,1.1645609109343316,0.08564456612308058,1.0,0.7869420636035783,3.396595609290487,6.010860484544695,8504383.463225227,11153523.903910834,-17165858.812421028,664070.2452392494,13038626.535557736,7176242.972746727,-5348264.663270944,7176242.972746727,10275237.450529892,12960080.592572447,119975357.63989106,119975357.63989106,10060192.939716717,10275237.450529892,10289518.53107267,10275237.450529892,10425188.796229076,10289518.53107267,10275237.450529892,10139567.185373485,0.04327167404462205,0.042914647031052564,1709445.340970713,1696592.3684822114,4149697.387670561,1684503.6194567955,6919183.522976696,6919183.522976696,152457675.33444315,106679671.6545633,45778003.67987987,44885436.145956144,44885436.145956144,91813066.80952977,91877331.67197227,-19600783.044964943,-19600783.044964943,53311273.666196086,51876025.07164674,0.0014709512959062943,20593.31814268812,140.04542541503906,2022-02-18,1,0,0,0,0,0,0,0,0,0,0,-16.53076585061893,0
139.95013732910155,141.2192138671875,142.83214263916017,139.96320999145507,139.47754950131147,140.8514440176898,143.75822695484047,139.96320999145507,30.042276384436956,28.908104099459255,33.44057244022405,-4.352654401198379,-4.897414166815035,0.5447597656166563,37.6027728683862,-131.1400437610187,-91.2386454898053,36.46380905332847,-3.656320443607841,3.2235168509327443,2.3483746331947546,4.014943470996059,143.0594447437339,139.95013732910155,136.8408299144692,-5.2093505859375,-1.9714344076248964,-2.84449347471579,100.0,14.285714285714286,-85.71428571428572,-0.7342664058331843,-0.019847533514047777,1.029478517013031,0.9789747096430409,0.22445796287630634,0.06739731160133015,1.1645609109343316,0.08564456612308058,1.0,0.7869420636035783,3.396595609290487,6.010860484544695,8676592.422110803,11379376.459560936,-17513457.752102748,677517.292406637,13302651.354134616,7321557.837297529,-5456564.000135173,7321557.837297529,10483305.201861834,13222514.900194045,122404790.82813242,122404790.82813242,10263906.161236906,10483305.201861834,10497875.466214666,10483305.201861834,10636292.977566559,10497875.466214666,10483305.201861834,10344887.690509941,0.044147900989077636,0.043783644380256864,1744060.643033859,1730947.4051163113,4233726.41457311,1718613.8657550765,7059293.078946573,7059293.078946573,155544857.0986463,108839874.71564685,46704982.38299946,45794340.86094753,45794340.86094753,93672229.52434988,93737795.71393761,-19997687.824260414,-19997687.824260414,54390796.82911776,52926485.26165826,0.0015007372283415829,21010.321196782163,137.265869140625,2022-02-22,1,0,0,0,0,0,0,0,0,0,0,-18.10775983964171,0
137.99585876464843,139.9987594604492,142.2340347290039,139.96320999145507,136.84985538856964,139.16835731685273,142.59977364134002,139.96320999145507,23.706547600282583,22.74328505580725,29.515313971788526,-4.78827675650561,-4.87558668475315,0.08730992824754047,38.79248198356283,-211.63247294902283,-96.08825140404632,33.89342344743169,-8.487223912703001,3.501984784870259,2.661194547435057,7.122067926057952,144.97019288310213,137.99585876464843,131.02152464619473,-12.204544067382812,-2.0280197136569367,-2.908801249968718,100.0,7.142857142857143,-92.85714285714286,-0.8672806273547338,-0.04131691303195606,1.0544037771283108,0.9551660498437169,0.22445796287630634,0.06739731160133015,1.1645609109343316,0.08564456612308058,1.0,0.7869420636035783,3.396595609290487,6.010860484544695,9050532.485716024,11869799.951879455,-18268245.252444435,706716.6424614529,13875963.324028095,7637099.200793119,-5691728.658103528,7637099.200793119,10935110.198946565,13792373.183521902,127680140.07136914,127680140.07136914,10706255.592447974,10935110.198946565,10950308.406311328,10935110.198946565,11094691.376276571,10950308.406311328,10935110.198946565,10790727.228981324,0.04605056831523015,0.04567061313111109,1819225.4215620623,1805547.0349337764,4416189.742079213,1792681.9499762007,7363531.468227396,7363531.468227396,162248462.72252128,113530609.01477532,48717853.70774596,47767965.74744831,47767965.74744831,97709275.14805764,97777667.08119906,-20859539.60813643,-20859539.60813643,56734908.09265814,55207488.25249951,0.00156541535857053,21915.815019987418,131.59446716308594,2022-02-23,1,0,0,0,0,0,0,0,0,0,0,-12.356410903071877,0
135.45587768554688,138.25145721435547,141.52352752685547,139.96320999145507,134.19336062362976,137.2978143671977,141.2931638749029,139.96320999145507,21.382516064597482,14.017988851362423,21.889792668876268,-5.291518154297279,-4.958772978661976,-0.3327451756353028,40.44942042780896,-249.00422228923753,-86.0389318986915,36.13853206723222,-11.93892538911877,3.654275790011362,2.835401356311407,5.634058856845698,144.34579179706,135.45587768554688,126.56596357403376,-17.4730224609375,-2.1933512144520217,-3.125849308111725,100.0,0.0,-100.0,0.04834657959208815,-0.02062469743482709,1.029199851708919,1.0013816349294886,0.22445796287630634,0.06739731160133015,1.1645609109343316,0.08564456612308058,1.0,0.7869420636035783,3.396595609290487,6.010860484544695,9241127.95371798,12119766.468268251,-18652956.843608756,721599.4120031673,14168177.702341758,7797929.129711647,-5811590.963337337,7797929.129711647,11165393.052393094,14082827.234255362,130368960.4352389,130368960.4352389,10931718.989039466,11165393.052393094,11180911.319317894,11165393.052393094,11328334.855103487,11180911.319317894,11165393.052393094,11017969.5166075,0.04702034878214187,0.046632392109021883,1857536.5508984758,1843570.1106661565,4509190.430381857,1830434.0994517838,7518600.325065259,7518600.325065259,165665258.5556949,115921453.92825074,49743804.62744415,48773912.94464419,48773912.94464419,99766938.05953468,99836770.26069628,-21298821.354287036,-21298821.354287036,57929690.430275775,56370104.604333445,0.0015983814932543274,22377.340905560584,128.88037109375,2022-02-24,1,0,0,0,0,0,0,0,0,0,0,-12.69195970213717,0
133.96594848632813,137.11693420410157,140.9758445739746,139.96320999145507,133.4767769554667,136.3425044130055,140.41225394578268,139.96320999145507,29.996161090591567,22.0186287070155,19.593300871395016,-5.373155285535404,-5.041649440036662,-0.33150584549874207,40.87606995068758,-144.57802264698228,-70.91470200693863,40.93973079371819,-7.9122127806880655,3.6934072343291016,2.7971116852850084,4.202116010459719,142.11613493102098,133.96594848632813,125.81576204163528,-11.345230102539062,-2.3917963041372796,-3.391588357778687,92.85714285714286,28.571428571428573,-64.28571428571429,0.5501109574283671,0.0245439898919102,1.0327450820671833,1.017818506043194,0.22445796287630634,0.06739731160133015,1.1645609109343316,0.08564456612308058,1.0,0.7869420636035783,3.396595609290487,6.010860484544695,9019747.365550332,11829425.1763137,-18206106.353302263,704312.7665794969,13828764.642732916,7611121.8323913375,-5672368.410409066,7611121.8323913375,10897914.743095657,13745458.831632117,127245839.82869577,127245839.82869577,10669838.578812772,10897914.743095657,10913061.254204892,10897914.743095657,11056953.10974264,10913061.254204892,10897914.743095657,10754022.887557909,0.045893928660986565,0.045515265883255655,1813037.3797756082,1799405.5197772952,4401168.202506931,1786584.195027971,7338484.63242508,7338484.63242508,161696579.34665418,113144437.98599659,48552141.36065757,47605484.41633029,47605484.41633029,97376919.92128141,97445079.22127298,-20788586.497427084,-20788586.497427084,56541925.97077982,55019701.60430156,0.0015600906442513585,21841.269019519023,132.04360961914062,2022-02-25,1,0,0,0,0,0,0,0,0,0,0,-12.55484127433523,0
130.93556365966796,135.63190994262695,140.0035327911377,139.96320999145507,130.6156850642239,134.26086748004784,138.93427750158799,139.96320999145507,23.680439785063527,21.832163788248867,19.289593782208886,-5.946262474696681,-5.222572046968666,-0.7236904277280152,41.785061703988504,-163.24234075529563,-96.1126133494331,34.37101768169447,-10.626767396289639,4.003820556596045,3.205787743562504,8.039193746066303,139.0578796554493,130.93556365966796,122.81324766388661,-14.850242614746094,-3.0220152415766455,-4.257364859947785,100.0,21.42857142857143,-78.57142857142857,-0.8075123873201643,-0.0541495976823545,1.0482264104879127,0.9627732224270401,0.22445796287630634,0.06739731160133015,1.1645609109343316,0.08564456612308058,1.0,0.7869420636035783,3.396595609290487,6.010860484544695,9536124.680445211,12506655.54227995,-19248399.438950703,744634.4208911877,14620456.479003321,8046855.838662836,-5997109.475779566,8046855.838662836,11521816.469488379,14532381.439973181,134530618.7076746,134530618.7076746,11280683.026267314,11521816.469488379,11537830.112948405,11521816.469488379,11689959.725818647,11537830.112948405,11521816.469488379,11369686.856618136,0.04852133968387739,0.04812099859737676,1916833.1221650576,1902420.8430510345,4653133.510037757,1888865.502039488,7758610.256382376,7758610.256382376,170953650.75750268,119621916.64639081,51331734.11111188,50330881.39486028,50330881.39486028,102951713.80450422,103023775.20007433,-21978725.648885056,-21978725.648885056,59778931.03627535,58169559.86854278,0.0016494052763826308,23091.673869356833,124.89350128173828,2022-02-28,1,0,0,0,0,0,0,0,0,0,0,-8.564926624191106,0
127.16021575927735,133.55517654418946,138.64214363098145,139.96320999145507,126.54016658903988,131.37509696343403,136.97759675273883,139.96320999145507,19.631137842844794,17.99113256844935,20.613975021237863,-6.846381657393039,-5.547333969053541,-1.2990476883394981,43.27571615336246,-177.97727754213767,-94.53380252772992,32.73557408215781,-14.923729335800362,4.300085284720851,3.632162258346585,8.151526750343322,137.3007878037016,127.16021575927735,117.0196437148531,-20.767333984375,-3.821610346416687,-5.345800986656769,100.0,14.285714285714286,-85.71428571428572,-0.6718745844868349,-0.05207934421178295,1.066698732061152,0.9576803959961416,0.22445796287630634,0.06739731160133015,1.1645609109343316,0.08564456612308058,1.0,0.7869420636035783,3.396595609290487,6.010860484544695,10060045.239246013,13193778.894796198,-20305918.35024972,785545.0942484292,15423713.355888514,8488955.050749155,-6326594.361205091,8488955.050749155,12154832.157241823,15330799.420009667,141921813.69421622,141921813.69421622,11900450.694248429,12154832.157241823,12171725.600128887,12154832.157241823,12332213.307555985,12171725.600128887,12154832.157241823,11994344.449814726,0.05118713194780087,0.0507647958756243,2022145.1135814404,2006941.0149830836,4908779.528776672,1992640.9351939424,8184873.07878202,8184873.07878202,180345949.54084098,126194018.36636056,54151931.17448042,53096090.99403899,53096090.99403899,108607944.32092798,108683964.81391977,-23186250.36249396,-23186250.36249396,63063222.29740615,61365431.28725632,0.0017400246173674882,24360.344643144836,118.38912963867188,2022-03-01,1,0,0,0,0,0,0,0,0,0,0,-1.9928081198646568,0
124.94590911865234,131.47088394165038,137.33384056091307,139.96320999145507,124.5344223793469,129.401976417348,135.4104860105695,139.96320999145507,24.20978784499123,12.389694916779542,17.404330424492546,-7.30336378735268,-5.898539932713368,-1.4048238546393117,44.65989528492399,-141.37951441901794,-87.45262617960087,35.34532422438539,-14.743960124141985,4.281722883668844,3.552620852302915,4.043011669992765,135.08155537976467,124.94590911865234,114.81026285754001,-20.842926025390625,-4.335292429043763,-6.024333807138305,92.85714285714286,7.142857142857143,-85.71428571428572,0.3310186125450517,0.01802365071693246,1.0344415186503508,1.011228899272161,0.22445796287630634,0.06739731160133015,1.1645609109343316,0.08564456612308058,1.0,0.7869420636035783,3.396595609290487,6.010860484544695,9881936.664400017,12960188.975476766,-19946411.201694075,771637.3717793465,15150643.450205233,8338661.920841325,-6214584.854437962,8338661.920841325,11939636.322478276,15059374.513758214,139409151.83480194,139409151.83480194,11689758.568838418,11939636.322478276,11956230.67455955,11939636.322478276,12113877.019331675,11956230.67455955,11939636.322478276,11781989.977706151,0.05028088680626709,0.04986602800423518,1986343.9441287692,1971409.0272556206,4821871.79572863,1957362.1239453973,8039963.583378352,8039963.583378352,177153005.6436648,123959810.04713373,53193195.59653108,52156048.59145131,52156048.59145131,106685089.53052513,106759764.11489087,-22775748.231551677,-22775748.231551677,61946716.31940431,60278983.935236044,0.0017092182643714555,23929.055701200377,120.52293395996094,2022-03-02,1,0,0,0,0,0,0,0,0,0,0,-1.473503312173031,0
123.13777770996094,129.2968276977539,135.9787910461426,139.96320999145507,122.96951960299559,127.66338325970163,133.92755534768602,139.96320999145507,23.743362167791435,17.101531641668277,15.827453042299014,-7.632670875843274,-6.24536612133935,-1.3873047545039245,45.58097061842778,-114.3816802162822,-88.74116433239362,36.736553096394395,-15.355643439935218,4.287400843047067,3.5776127112985097,4.361214314963959,133.04376367805685,123.13777770996094,113.23179174186504,-21.740562438964858,-4.869226922233523,-6.721874041435058,85.71428571428572,0.0,-85.71428571428572,-0.39270394698066513,-0.005668795864984144,1.0369255449666972,0.9859100572662753,0.22445796287630634,0.06739731160133015,1.1645609109343316,0.08564456612308058,1.0,0.7869420636035783,3.396595609290487,6.010860484544695,9938274.71500954,13034076.494412176,-20060127.9721939,776036.5646481001,15237019.000510009,8386201.58571334,-6250014.913133623,8386201.58571334,12007705.554071141,15145229.7294226,140203939.34642342,140203939.34642342,11756403.218792193,12007705.554071141,12024394.512450669,12007705.554071141,12182939.617056195,12024394.512450669,12007705.554071141,11849160.449465614,0.05056754388997297,0.05015031993048475,1997668.3180296253,1982648.2554880492,4849361.83806406,1968521.2691762368,8085800.334881817,8085800.334881817,178162975.1806622,124666519.0950819,53496456.08558032,52453396.18685976,52453396.18685976,107293313.42199217,107368413.73470004,-22905595.3759036,-22905595.3759036,62299881.63078189,60622641.313639216,0.0017189627130914905,24065.477983280867,119.83971405029295,2022-03-03,1,0,0,0,0,0,0,0,0,0,0,2.0145685877138315,1
119.92957763671875,126.94776306152343,134.47290496826173,139.96320999145507,120.64721615297361,125.54324253119763,132.2204176243759,139.96320999145507,21.265409289728083,16.789353781039868,15.42686011316252,-8.109786830708543,-6.618250263213189,-1.4915365674953547,46.71585588054294,-122.10096846449696,-96.30207311814294,38.275555161439016,-16.839987179809746,4.3281017175483445,3.7310382459686244,4.857213086064959,125.78071399582365,119.92957763671875,114.07844127761385,-23.4906463623047,-5.688526416371432,-7.7936357351449885,100.0,0.0,-100.0,-0.5313366622733584,-0.032018641130543535,1.0298713832875896,0.9845114809054557,0.22445796287630634,0.06739731160133015,1.1645609109343316,0.08564456612308058,1.0,0.7869420636035783,3.396595609290487,6.010860484544695,10267010.437697727,13465214.360775694,-20723671.781885255,801706.1047068755,15741025.238653276,8663598.228283977,-6456751.316402686,8663598.228283977,12404893.38358273,15646199.785408376,144841569.58370885,144841569.58370885,12145278.533589695,12404893.38358273,12422134.375081802,12404893.38358273,12585923.794322992,12422134.375081802,12404893.38358273,12241103.96434154,0.05224020424218995,0.05180917945471313,2063746.6824389892,2048229.7900898238,5009767.795247442,2033635.5149187483,8353260.38130067,8353260.38130067,184056204.74834946,128790206.49807225,55265998.25027719,54188436.28158516,54188436.28158516,110842334.34753768,110919918.80928351,-23663260.83247713,-23663260.83247713,64360621.266037986,62627901.620381184,0.0017758221244044768,24861.509741662678,116.00260925292967,2022-03-04,1,0,0,0,0,0,0,0,0,0,0,2.519833677678761,1
116.38258209228516,123.65907287597656,132.6996109008789,139.96320999145507,116.15098528850585,122.20056635453813,129.8335705705849,139.96320999145507,16.89003395935801,8.878419991307142,14.256435138005054,-9.096687513555196,-7.11393771328159,-1.9827498002736057,48.319730719293894,-143.5670167942937,-99.89438947118931,30.583414746423284,-23.483024710021773,4.65334601217049,4.342487986579673,8.881521842258394,126.11287060569495,116.38258209228516,106.65229357887537,-32.886901855468736,-6.844983511777883,-9.283701872214309,100.0,7.142857142857143,-92.85714285714286,-0.9497663051616068,-0.07624040312813896,1.074785930692489,0.9337030299640544,0.22445796287630634,0.06739731160133015,1.1645609109343316,0.08564456612308058,1.0,0.7869420636035783,3.396595609290487,6.010860484544695,11114374.857338466,14576535.287290245,-22434053.028582428,867873.0996914167,17040175.054156203,9378628.657955632,-6989644.641600764,9378628.657955632,13428703.123182243,16937523.397203453,156795740.01091594,156795740.01091594,13147661.550383246,13428703.123182243,13447367.060810015,13428703.123182243,13624674.468273854,13447367.060810015,13428703.123182243,13251395.715718405,0.05655173101215037,0.056085132571456066,2234073.3340443564,2217275.790179361,5423237.617462468,2201477.0096086413,9042677.780655729,9042677.780655729,199246866.14528427,139419614.07945985,59827252.065824434,58660755.964088656,58660755.964088656,119990455.00894877,120074442.72827375,-25616254.39411762,-25616254.39411762,69672479.16447437,67796753.43288325,0.0019223855756605572,26913.398059247804,107.15852355957033,2022-03-07,1,0,0,0,0,0,0,0,0,0,0,9.998382397983907,1
114.74291229248047,120.95156402587891,131.08538894653321,139.96320999145507,114.16425040555337,120.0169689518309,127.96282867240048,139.96320999145507,22.758065884331867,13.290161552750268,12.985978441699052,-9.524344891009406,-7.596019148827153,-1.9283257421822526,49.97302567370226,-123.02648365920871,-84.20173722545724,32.19957085450945,-19.724559841776035,5.047610099178188,4.580791668665224,10.173043230278253,125.2963090955484,114.74291229248047,104.18951548941254,-27.075088500976562,-7.752075391013815,-10.412153390737672,100.0,0.0,-100.0,0.25206965698615796,0.028296928506974517,1.0976464496620675,1.0238260683806046,0.22445796287630634,0.06739731160133015,1.1645609109343316,0.08564456612308058,1.0,0.7869420636035783,3.396595609290487,6.010860484544695,10808526.748665748,14175414.59396801,-21816707.224007104,843990.7536741516,16571259.314075278,9120545.241317445,-6797301.876364942,9120545.241317445,13059168.758463485,16471432.450737474,152480996.16379672,152480996.16379672,12785860.95698337,13059168.758463485,13077319.097252177,13059168.758463485,13249747.315744746,13077319.097252177,13059168.758463485,12886740.539970918,0.054995526529735037,0.05454176806001775,2172595.5530063645,2156260.2480965424,5273999.627069473,2140896.222266319,8793839.143120999,8793839.143120999,193763941.7386754,135583030.751525,58180910.987150386,57046514.81285717,57046514.81285717,116688528.07249722,116770204.59704633,-24911339.98747899,-24911339.98747899,67755214.69818512,65931105.649921626,0.0018694848952352174,26172.788533293045,110.19078063964844,2022-03-08,1,0,0,0,0,0,0,0,0,0,0,9.889512692926628,1
113.4794692993164,119.21268920898437,129.6057243347168,139.96320999145507,114.17807326841579,118.96037805043267,126.65262775066144,139.96320999145507,29.82334868469146,29.293822400045826,17.154134648034372,-9.4305845642575,-7.962932231913223,-1.4676523323442776,51.13814906847749,-76.38450101108053,-72.86545522675853,37.932744631014515,-13.213890024263186,5.066099415874059,4.435941965510482,5.306460532920383,122.33909526352578,113.4794692993164,104.61984333510703,-17.388748168945312,-8.532534930269968,-11.35733941885141,92.85714285714286,0.0,-92.85714285714286,-0.22065734426042174,0.03643624567487236,1.0175627053450804,0.9961632553411989,0.22445796287630634,0.06739731160133015,1.1645609109343316,0.08564456612308058,1.0,0.7869420636035783,3.396595609290487,6.010860484544695,10428549.55504553,13677073.387893464,-21049733.946540263,814319.9904443612,15988691.42528391,8799909.574156808,-6558340.568202436,8799909.574156808,12600069.529563826,15892374.007059308,147120478.2736146,147120478.2736146,12336369.950722726,12600069.529563826,12617581.787422845,12600069.529563826,12783948.23708352,12617581.787422845,12600069.529563826,12433703.07990315,0.05306214131282612,0.05262433486635065,2096217.265724517,2080456.2336514003,5088590.493702123,2065632.3350330933,8484688.932694474,8484688.932694474,186952108.77395222,130816566.20686835,56135542.56708387,55041026.45089521,55041026.45089521,112586305.77563007,112665110.93599565,-24035573.91150292,-24035573.91150292,65373258.58771614,63613276.67288478,0.0018037625594789076,25252.675832704706,114.20571899414062,2022-03-09,1,0,0,0,0,0,0,0,0,0,0,3.2849111493942353,1
112.19544219970703,117.66660995483399,127.95903358459472,139.96320999145507,113.92524169635922,117.95295995985329,125.39233735081235,139.96320999145507,29.25900725112729,50.85264850283503,31.145544151877004,-9.312366627674152,-8.232819111065409,-1.0795475166087432,52.351237138724436,-76.69236732342125,-74.83425648713997,41.660822354143676,-11.996235276400192,4.898764923520839,4.3191528182801795,2.7234165229289857,118.4834282638595,112.19544219970703,105.90745613555457,-15.460792541503906,-9.152120912821355,-12.064937347020859,85.71428571428572,0.0,-85.71428571428572,0.570448771560933,-0.0068835470659298625,1.0244291132103618,1.0138877577098822,0.22445796287630634,0.06739731160133015,1.1645609109343316,0.08564456612308058,1.0,0.7869420636035783,3.396595609290487,6.010860484544695,10500832.529997213,13771872.721961081,-21195635.098331906,819964.2529720746,16099513.18201084,8860904.024053063,-6603798.123398751,8860904.024053063,12687403.87125608,16002528.1628421,148140208.37028813,148140208.37028813,12421876.522411918,12687403.87125608,12705037.511104941,12687403.87125608,12872557.089669127,12705037.511104941,12687403.87125608,12519884.292691892,0.05342992874205131,0.05298908774582976,2110746.6899087597,2094876.4140447841,5123860.830890835,2079949.7671500405,8543498.506773552,8543498.506773552,188247922.20652434,131723289.67099778,56524632.53552656,55422530.044972695,55422530.044972695,113366670.58833264,113446021.96765251,-24202170.692562845,-24202170.692562845,65826377.55580117,64054196.750990555,0.0018162649044327673,25427.708662058743,113.4195785522461,2022-03-10,1,0,0,0,0,0,0,0,0,0,0,5.385146949128875,1
111.4991455078125,115.71436157226563,126.4156478881836,139.96320999145507,113.4572030620585,116.96535374778125,124.16650767868327,139.96320999145507,28.593080787928027,64.46648072795973,48.20431721028016,-9.185293346121384,-8.423313958076603,-0.7619793880447805,53.15088323771689,-68.40532849460403,-76.85716576567758,37.57968523293931,-14.784875907280304,4.758758120900969,4.229213036524457,2.938669686842644,116.60685453203047,111.4991455078125,106.39143648359453,-19.52248382568358,-9.448492739508493,-12.330552516839461,78.57142857142857,0.0,-78.57142857142857,-0.4458580154823205,-0.007921496184851162,1.0261841180586473,0.9884897317430055,0.22445796287630634,0.06739731160133015,1.1645609109343316,0.08564456612308058,1.0,0.7869420636035783,3.396595609290487,6.010860484544695,10584679.024507726,13881837.645911895,-21364876.88909872,826511.4603519887,16228063.726911088,8931656.103803748,-6656527.7828348335,8931656.103803748,12788709.585446361,16130304.306869457,149323070.5035926,149323070.5035926,12521062.067812378,12788709.585446361,12806484.02545393,12788709.585446361,12975341.205525843,12806484.02545393,12788709.585446361,12619852.40537445,0.05385655322293603,0.05341219222274679,2127600.468906087,2111603.4728992744,5164773.564981456,2096557.6405005867,8611716.183667494,8611716.183667494,189751034.30080977,132775066.85654527,56975967.44426451,55865064.943791404,55865064.943791404,114271874.80866528,114351859.78869933,-24395418.91038934,-24395418.91038934,66351984.5482575,64565653.327496745,0.0018307673207796737,25630.742490915432,112.52112579345705,2022-03-11,1,0,0,0,0,0,0,0,0,0,0,7.605322324115961,1
112.89361114501953,114.63809661865234,125.13500328063965,139.96320999145507,113.68175262324083,116.44998974738566,123.21073092315206,139.96320999145507,31.596966675824373,72.15472570127531,62.491284977356656,-8.852647612583908,-8.509180688978065,-0.34346692360584363,53.291273887887755,-47.403852475810716,-70.61104452889822,37.36724907349909,-8.617461617841993,4.735710733527545,4.149369483444594,4.4360946976730276,115.85645722307582,112.89361114501953,109.93076506696325,-10.762649536132798,-9.53746212733411,-12.329314549763993,71.42857142857143,0.0,-71.42857142857143,-0.005435943152720645,0.014305988682545179,1.0303405085118162,0.9998359902249674,0.22445796287630634,0.06739731160133015,1.1645609109343316,0.08564456612308058,1.0,0.7869420636035783,3.396595609290487,6.010860484544695,10435390.446876766,13686045.23763351,-21063542.094283585,814854.1658770271,15999179.643994102,8805682.115122713,-6562642.690773047,8805682.115122713,12608334.889215505,15902799.043729078,147216985.96844956,147216985.96844956,12344462.32943537,12608334.889215505,12625858.634718237,12608334.889215505,12792334.216994189,12625858.634718237,12608334.889215505,12441859.306939553,0.05309694887327725,0.05265885523570896,2097592.3366769925,2081820.965724534,5091928.493579972,2066987.3429651628,8490254.696073541,8490254.696073541,187074745.11441296,130902378.9054063,56172366.209006675,55077132.11508594,55077132.11508594,112660159.83706252,112739016.69182481,-24051340.70249935,-24051340.70249935,65416141.96169768,63655005.53867314,0.001804945786781372,25269.241014939205,114.13085174560548,2022-03-14,1,0,0,0,0,0,0,0,0,0,0,4.629529915018404,1
113.94741516113281,114.34516372680665,123.95017013549804,139.05727416992187,114.27443532223216,116.26995537880914,122.4725470943009,139.0022919808182,34.06307893509915,74.74069933191403,70.45396858704966,-8.385129839187329,-8.484370519019917,0.09924067983258844,53.42163663447498,-31.747211541591273,-60.21786123737997,39.936204648339476,-2.474322539068796,4.604676657687866,3.9881210854036,2.9012336717720473,115.88660938059954,113.94741516113281,112.00822094166608,-2.9293289184570312,-9.87813602902826,-12.666506155943253,64.28571428571429,0.0,-64.28571428571429,0.33548433143090195,0.01164408180858545,1.0254390157442506,1.0085016014057095,0.22445796287630634,0.06739731160133015,1.1645609109343316,0.08564456612308058,1.0,0.7869420636035783,3.396595609290487,6.010860484544695,10315278.500142762,13528518.066518048,-20821099.508264653,805475.1473663114,15815028.162267577,8704328.20541014,-6487106.294380293,8704328.20541014,12463212.226452926,15719756.908278013,145522509.9575136,145522509.9575136,12202376.85507568,12463212.226452926,12480534.272632847,12463212.226452926,12645093.711342093,12480534.272632847,12463212.226452926,12298652.78774368,0.05248579992515964,0.05205274877066163,2073448.927736505,2057859.0861745763,5033320.102537231,2043196.1992698738,8392531.374171568,8392531.374171568,184921503.99374318,129395684.96400745,55525819.02973573,54443191.14349069,54443191.14349069,111363434.89071003,111441384.09851967,-23774508.38194113,-23774508.38194113,64663198.389643885,62922332.74856185,0.0017841707565318294,24978.390591445615,115.45980072021484,2022-03-15,1,0,0,0,0,0,0,0,0,0,0,0.9660194004749845,1
115.0405258178711,114.25999755859375,122.86544075012208,138.2698747253418,116.0733809740988,116.88837663317695,122.20575901654196,138.24421277677953,41.28713345184708,79.34165494424286,75.41235999247738,-7.587326105130089,-8.304961636241952,0.7176355311118634,52.266300279340506,23.273974230034604,-45.36145799631435,50.21551211414542,-0.7066386903689437,4.660150988743304,3.8941267190041833,5.38131729246399,120.05426355803075,115.0405258178711,110.02678807771144,-0.851661682128892,-9.599181361267267,-12.224617004394531,57.142857142857146,7.142857142857143,-50.0,0.6563166881753711,0.036475652403233916,1.0388606820024309,1.0254210575454592,0.22445796287630634,0.06739731160133015,1.1645609109343316,0.08564456612308058,1.0,0.7869420636035783,3.396595609290487,6.010860484544695,9952263.206786525,13052422.442485768,-20088363.349382706,777128.8650135573,15258465.672201673,8398005.47675941,-6258812.041883381,8398005.47675941,12024606.846822677,15166547.204296844,140401281.61244935,140401281.61244935,11772950.794147965,12024606.846822677,12041319.295532646,12024606.846822677,12200087.558277352,12041319.295532646,12024606.846822677,11865838.584077971,0.050638719591205986,0.05022090837345677,2000480.1105832863,1985438.9067443141,4856187.495448327,1971292.0361731586,8097181.399979968,8097181.399979968,178413746.20327377,124841991.86346823,53571754.33980554,52527226.295432486,52527226.295432486,107444332.75639053,107519538.7755854,-22937835.854432415,-22937835.854432415,62387571.03431418,60707969.938962296,0.0017213822171268042,24099.35103977526,119.67127227783205,2022-03-16,1,0,0,0,0,0,0,0,0,0,0,-8.943082848274472,0
116.44247589111328,114.31895904541015,121.80789337158203,137.48551696777344,117.52536362221821,117.53218613959152,122.03657519767673,137.54558988037473,42.508121238791716,85.12230231601718,79.73488553072467,-6.815329189962668,-8.007035146986095,1.1917059570234265,51.193487949572784,52.6242125297486,-37.03305551025411,53.033018286927,0.49200289973709843,4.553231096712966,3.7808324081885143,3.1632725003185698,122.63966018325897,116.44247589111328,110.24529159896758,0.5896148681640909,-8.822150153846648,-11.155766462668396,50.0,0.0,-50.0,0.946745308359404,0.006334491362848249,1.0269751759114267,1.0255019862387569,0.22445796287630634,0.06739731160133015,1.1645609109343316,0.08564456612308058,1.0,0.7869420636035783,3.396595609290487,6.010860484544695,9889617.510087004,12970262.427167002,-19961914.77266932,772237.1355483555,15162419.457110722,8345143.238990293,-6219415.20995396,8345143.238990293,11948916.538215952,15071079.580863066,139517509.15573624,139517509.15573624,11698844.5643001,11948916.538215952,11965523.788442798,11948916.538215952,12123292.66559784,11965523.788442798,11948916.538215952,11791147.661060913,0.05031996818734445,0.049904786931673294,1987887.8521535087,1972941.3269493468,4825619.649458441,1958883.5055265743,8046212.734907059,8046212.734907059,177290699.79669824,124056159.19454227,53234540.60215599,52196587.462978095,52196587.462978095,106768011.70839521,106842744.33441602,-22793450.93634662,-22793450.93634662,61994865.09681744,60325836.44901938,0.0017105467733651745,23947.654827112445,120.42932891845705,2022-03-17,1,0,0,0,0,0,0,0,0,0,0,-11.54608834397758,0
118.44526519775391,114.9722053527832,120.95998420715333,136.70878067016602,119.19526652369886,118.44180180996763,122.08405111472277,136.95694213317023,45.875269641815365,92.72097569698617,85.7283109857487,-5.964841201755888,-7.598596357940053,1.633755156184165,49.41237389615377,109.38916149375932,-9.79767156817322,55.71355127178236,5.631307016109632,4.503417300511527,3.67520679182046,3.8558379498928304,124.75039239029067,118.44526519775391,112.14013800521715,6.532463073730483,-8.023215088289572,-10.071998987442399,42.85714285714286,0.0,-42.85714285714286,0.4126203434336388,0.017485303846780598,1.0323721446943754,1.0131548170273594,0.22445796287630634,0.06739731160133015,1.1645609109343316,0.08564456612308058,1.0,0.7869420636035783,3.396595609290487,6.010860484544695,9719666.193406017,12747370.77590277,-19618872.820275456,758966.3778226362,14901855.977463802,8201733.437760745,-6112535.666550049,8201733.437760745,11743576.53426638,14812085.760732092,137119925.59328958,137119925.59328958,11497802.002712548,11743576.53426638,11759898.391853964,11743576.53426638,11914956.038936008,11759898.391853964,11743576.53426638,11588518.887184337,0.04945522849037822,0.049047182050688636,1953726.3532337537,1939036.6814049284,4742692.234683238,1925220.4411411877,7907940.001184241,7907940.001184241,174243990.67624843,121924276.17924929,52319714.496999145,51299598.39777517,51299598.39777517,104933222.43057479,105006670.78971891,-22401749.538958453,-22401749.538958453,60929494.37444948,59289147.68689733,0.001681151331521108,23536.118641295514,122.53507232666016,2022-03-18,1,0,0,0,0,0,0,0,0,0,0,-14.43958025559811,0
119.74801330566406,116.3208122253418,119.98994255065918,135.94047470092772,119.67837511085132,118.84230916909283,121.94695979762119,136.31724213913046,43.41679974206823,88.21325267106833,88.68551022802387,-5.381336585226606,-7.1551444033973635,1.7738078181707575,47.75848227512182,96.18398126682675,-12.356767484713636,53.41852836353345,12.585157276909364,4.38429622642835,3.6340594662258896,2.835722263347037,124.43248972725702,119.74801330566406,115.0635368840711,13.486068725585909,-7.323985076865834,-9.130147053645203,35.714285714285715,0.0,-35.714285714285715,-0.5247514780384157,-0.015428073004797982,1.023647847216334,0.9878161200161638,0.22445796287630634,0.06739731160133015,1.1645609109343316,0.08564456612308058,1.0,0.7869420636035783,3.396595609290487,6.010860484544695,9871971.693392985,12947119.886716912,-19926297.188007332,770859.2506175882,15135365.501373291,8330253.192157808,-6208318.050672834,8330253.192157808,11927596.361706553,15044188.60076261,139268571.27824426,139268571.27824426,11677970.585452797,11927596.361706553,11944173.979999404,11927596.361706553,12101661.353781492,11944173.979999404,11927596.361706553,11770108.987924466,0.05023018342733961,0.04981574297001833,1984340.9096543076,1969421.0531907415,4817009.407486742,1955388.3148148807,8031856.062886484,8031856.062886484,176974364.0853347,123834808.64759965,53139555.437735036,52103454.29443182,52103454.29443182,106577508.00474139,106652107.28705922,-22752781.106938493,-22752781.106938493,61884249.08721413,60218198.44878256,0.0017074946841636898,23904.92557829166,120.64459228515624,2022-03-21,1,0,0,0,0,0,0,0,0,0,0,-11.45453322075176,0
121.0750946044922,117.5112548828125,119.23140945434571,135.25543731689453,120.48398581201937,119.43374517732241,121.96107859921493,135.75951527933535,45.81629392590986,85.44123273196209,88.79182036667218,-4.747130505727924,-6.673541623863476,1.9264111181355519,46.173553026006346,106.67012611719937,-4.633815524576482,56.555197646474674,10.803468770801716,4.232237514006983,3.466342054341813,2.2554742525292113,123.21896538027434,121.0750946044922,118.93122382871005,11.904426574707045,-6.407085266746902,-7.943640684470154,28.571428571428573,85.71428571428572,57.142857142857146,0.12903516903616352,0.012023870293088379,1.0143673761307812,1.0018430770305193,0.22445796287630634,0.06739731160133015,1.1645609109343316,0.08564456612308058,1.0,0.7869420636035783,3.396595609290487,6.010860484544695,9754682.654406166,12793294.967407582,-19689552.561874412,761700.6606715142,14955542.004152527,8231281.333063138,-6134556.933795313,8231281.333063138,11785884.41619687,14865448.377621487,137613919.36132023,137613919.36132023,11539224.447414255,11785884.41619687,11802265.07556615,11785884.41619687,11957881.339574309,11802265.07556615,11785884.41619687,11630268.15218871,0.04963339788891802,0.049223881404686025,1960764.926502801,1946022.3330704493,4759778.448794599,1932156.3178629256,7936429.4644161,7936429.4644161,174871729.0967473,122363525.48852067,52508203.60822664,51484412.39764665,51484412.39764665,105311259.08510032,105384972.05226208,-22482454.98433663,-22482454.98433663,61149001.425521776,59502745.15890915,0.001687207915035827,23620.91081050158,122.09520721435548,2022-03-22,1,0,0,0,0,0,0,0,0,0,0,-16.44922038711731,0
121.2379379272461,118.1392318725586,118.67596054077148,134.56654663085936,120.48448683854677,119.62497130719134,121.82054624610889,135.1605338523654,43.60643182399224,72.45472281870234,82.03640274057757,-4.324557625819267,-6.203744824254634,1.8791871984353667,44.882768685091335,84.9694571458044,-13.203820579497252,56.542561899745856,5.498647486981922,4.086360626588395,3.391579072451467,2.1899610901467526,123.02445530182499,121.2379379272461,119.4514205526672,6.2797698974609375,-4.96085242380284,-6.114945827386322,21.42857142857143,78.57142857142857,57.142857142857146,-0.23076672274606125,-0.013184123762760236,1.0182100882326117,0.9958230716953002,0.22445796287630634,0.06739731160133015,1.1645609109343316,0.08564456612308058,1.0,0.7869420636035783,3.396595609290487,6.010860484544695,9885007.820912935,12964216.806268686,-19952610.24473106,771877.1850083148,15155352.041131,8341253.450896305,-6216516.253454062,8341253.450896305,11943346.980935108,15064054.739678401,139452478.09150222,139452478.09150222,11693391.569067255,11943346.980935108,11959946.490290126,11943346.980935108,12117641.829162791,11959946.490290126,11943346.980935108,11785651.64206244,0.05029651334570309,0.049881525611827654,1986961.2697955975,1972021.7113760817,4823370.360582143,1957970.442500681,8042462.28250599,8042462.28250599,177208062.11948958,123998334.8819809,53209727.23750867,52172257.90282007,52172257.90282007,106718245.64340766,106792943.43550524,-22782826.58976155,-22782826.58976155,61965968.422280416,60297717.73210115,0.0017097494635668047,23936.49248993527,120.48548889160156,2022-03-23,1,0,0,0,0,0,0,0,0,0,0,-14.146848009349384,0
121.39329833984375,118.91788711547852,118.29224853515625,133.84321838378906,120.72503488617963,119.91245488432843,121.76203050661712,134.61330236723128,44.888011809221176,65.91879073447082,74.60491542837839,-3.886712181392525,-5.740338295682212,1.8536261142896873,43.68418322567025,74.58059058730835,-9.36718266250819,57.9466632832502,6.865263060038962,3.9114630309613276,3.2271164827133276,1.6377942878094416,122.99730189988327,121.39329833984375,119.78929477980424,7.786552429199233,-3.6098251880280396,-4.421625773111984,14.285714285714286,71.42857142857143,57.142857142857146,0.11999511718750917,0.005981152555990521,1.013601740635698,1.0016240638060472,0.22445796287630634,0.06739731160133015,1.1645609109343316,0.08564456612308058,1.0,0.7869420636035783,3.396595609290487,6.010860484544695,9826235.606698168,12887136.874611702,-19833980.18346129,767287.9189109401,15065244.515391145,8291659.768876287,-6179555.389938646,8291659.768876287,11872336.723794008,14974490.030358668,138623350.68324316,138623350.68324316,11623867.444590546,11872336.723794008,11888837.539254459,11872336.723794008,12045595.286128737,11888837.539254459,11872336.723794008,11715578.97691973,0.049997470845164475,0.04958495045865322,1975147.6106159037,1960296.8767014984,4794692.572844883,1946329.1509248281,7994645.090588182,7994645.090588182,176154455.44803742,123261091.48956391,52893363.95847351,51862062.99219537,51862062.99219537,106083742.59523512,106157996.26480715,-22647369.21946807,-22647369.21946807,61597544.11386106,59939212.1600858,0.0016995839924263832,23794.17589396937,121.20613098144533,2022-03-24,1,0,0,0,0,0,0,0,0,0,0,-14.207373071739756,0
121.11814880371094,119.78170700073242,117.74803428649902,133.12566665649413,120.86979813945179,120.1391584773589,121.70462994846274,134.08569539777108,44.81677139945779,50.84924960881552,63.07425438732954,-3.503111701192111,-5.292892976784192,1.7897812755920812,42.639961821436486,60.96843481052304,-9.616375658408234,58.865859858228944,7.67695736389562,3.73167779444042,3.0799757305875173,1.3944697196686207,122.24547973721982,121.11814880371094,119.99081787020205,8.638198852539048,-2.5116323509834255,-3.056737410716522,7.142857142857143,64.28571428571429,57.142857142857146,0.1610769183504017,-0.00038617135181384654,1.011610733826106,1.0018573401245687,0.22445796287630634,0.06739731160133015,1.1645609109343316,0.08564456612308058,1.0,0.7869420636035783,3.396595609290487,6.010860484544695,9830031.683321688,12892115.440259008,-19841642.457351252,767584.3379923737,15071064.528753487,8294863.007336942,-6181942.67909987,8294863.007336942,11876923.251301352,14980274.983399551,138676903.73062217,138676903.73062217,11628357.983312339,11876923.251301352,11893430.441365704,11876923.251301352,12050248.74697705,11893430.441365704,11876923.251301352,11720104.945690008,0.050016785894986926,0.04960410614337813,1975910.6507029491,1961054.1796450322,4796544.861057914,1947081.0578490288,7997733.586178604,7997733.586178604,176222507.5319911,123308709.78071035,52913797.75128073,51882098.37225872,51882098.37225872,106124724.9237198,106199007.27900939,-22656118.36332329,-22656118.36332329,61621340.51022647,59962367.90875909,0.0017002405766282686,23803.36807279576,121.1593246459961,2022-03-25,1,0,0,0,0,0,0,0,0,0,0,-12.513586550126114,0
121.23794555664062,120.49297943115235,117.56553802490234,132.4029005432129,120.99439077623609,120.33996167234905,121.66072005335245,133.5820828743214,44.98602046862653,50.71384926344977,55.82729653557868,-3.1559276038515947,-4.865499902197673,1.7095722983460782,41.89051234170078,47.8170574090144,-14.995786461709642,57.86621505065834,6.232078526894069,3.623561095540257,2.9886623387384774,2.218044009838138,122.26100516381591,121.23794555664062,120.21488594946534,7.11272430419919,-1.4072797203046719,-1.7028268667367854,0.0,57.142857142857146,57.142857142857146,-0.046413705853382115,0.0006953769679283184,1.018618923163924,0.9991516226496628,0.22445796287630634,0.06739731160133015,1.1645609109343316,0.08564456612308058,1.0,0.7869420636035783,3.396595609290487,6.010860484544695,9823200.855695305,12883156.789753204,-19827854.623922344,767050.9484296081,15060591.740134027,8289098.958836088,-6177646.885739532,8289098.958836088,11868670.051507592,14969865.28386816,138580538.01628253,138580538.01628253,11620277.509970969,11868670.051507592,11885165.77082866,11868670.051507592,12041875.104378795,11885165.77082866,11868670.051507592,11711960.717957458,0.049982029542832526,0.04956963655980586,1974537.602731701,1959691.4553427408,4793211.771989269,1945728.043381809,7992176.011056885,7992176.011056885,176100051.61204907,123223023.3283693,52877028.28367976,51846045.82611308,51846045.82611308,106050979.51513873,106125210.25208353,-22640374.76816424,-22640374.76816424,61578520.22554252,59920700.433775306,0.0016990590900698847,23786.827260978385,121.24357604980467,2022-03-28,1,0,0,0,0,0,0,0,0,0,0,-11.318128439623381,0
122.25431671142579,121.66470565795899,118.00493469238282,131.87002853393554,123.05528151358448,121.58307100251854,122.18608604715519,133.33090562388844,55.36805606823151,59.58389595366987,53.71566494197837,-2.3746256908561776,-4.367325059929374,1.992699369073196,39.15762197563902,167.28085912134023,-10.750412015640759,58.712619164514365,10.1483479054844,3.9235905492716574,3.0851400850743014,7.8239734477798635,127.20862638244272,122.25431671142579,117.30000704040886,11.717262268066392,0.011151484483543453,0.013438249245666611,7.142857142857143,100.0,92.85714285714286,0.47627940644227024,0.04893856756616288,1.0397316367363632,1.0188183716820314,0.22445796287630634,0.06739731160133015,1.1645609109343316,0.08564456612308058,1.0,0.7869420636035783,3.396595609290487,6.010860484544695,9364896.247916536,12282088.949828405,-18902779.664140515,731263.938754188,14357934.969517713,7902368.370408161,-5889426.775557923,7902368.370408161,11314933.417927705,14271441.385363992,132115018.26825663,132115018.26825663,11078129.710621025,11314933.417927705,11330659.524137473,11314933.417927705,11480057.533130264,11330659.524137473,11314933.417927705,11165535.408934914,0.04765010181559547,0.04725694916035129,1882414.9133091678,1868261.4177203772,4569582.929065989,1854949.4732531896,7619298.458632346,7619298.458632346,167884046.84237278,117474013.3869631,50410033.45540967,49427151.8172992,49427151.8172992,101103136.82259515,101173904.3005391,-21584080.77290587,-21584080.77290587,58705554.48106202,57125080.80698039,0.0016197889396060508,22677.045154484713,127.17706298828124,2022-03-29,1,0,0,0,0,0,0,0,0,0,0,-10.539365897366606,0
123.04045257568359,122.13919525146484,118.1995964050293,131.30449935913086,123.50891041335319,122.09817958622256,122.39847482484427,132.98130807835912,50.58449403597473,63.420009443174614,57.90591822009807,-1.9556756192714886,-3.8849951717977964,1.9293195525263078,36.461211704045084,115.17321456340154,-27.626685494412857,56.785732233958996,3.964941497440333,3.9020415522274647,3.136281729518156,3.62190459065296,127.86839478480508,123.04045257568359,118.2125103665621,4.7448959350585795,1.1371908622868947,1.364767221304092,0.0,92.85714285714286,92.85714285714286,-0.5218863349123003,-0.021709062235892418,1.0224965999438513,0.9884749573317804,0.22445796287630634,0.06739731160133015,1.1645609109343316,0.08564456612308058,1.0,0.7869420636035783,3.396595609290487,6.010860484544695,9572710.822937896,12554638.375675058,-19322247.538490936,747491.2733276443,14676549.087056758,8077728.2762826085,-6020117.889488232,8077728.2762826085,11566020.885144949,14588136.140749188,135046756.71452776,135046756.71452776,11323962.313235966,11566020.885144949,11582095.96629178,11566020.885144949,11734809.237186674,11582095.96629178,11566020.885144949,11413307.614250053,0.04870749587489811,0.04830561884622733,1924187.213275678,1909719.64024353,4670985.6471836595,1896112.2930287924,7788376.815639649,7788376.815639649,171609528.782995,120080856.16682802,51528672.616166964,50523980.044490024,50523980.044490024,103346696.69297689,103419034.55813763,-22063048.87402563,-22063048.87402563,60008277.92112035,58392732.26586383,0.001655733358123599,23180.26701373039,124.41616821289062,2022-03-30,1,0,0,0,0,0,0,0,0,0,0,-8.3350237645605,0
123.33244476318359,122.36287155151368,118.34091529846191,130.7457325744629,123.22797091521724,122.20143637399033,122.4239621671396,132.5767897975978,47.76731299703423,56.591090806058524,59.864998734301,-1.7447587077831486,-3.4569478789948667,1.712189171211718,34.0188669962483,78.36144049018237,-41.15534698150799,52.91796340411111,1.8573241423630371,3.787772626447142,3.0878725874384316,2.3022765913029417,127.84778709533842,123.33244476318359,118.81710243102876,2.2367630004882812,1.9292342295135247,2.308690535716522,0.0,85.71428571428572,85.71428571428572,-0.569101656752617,-0.014066309219157969,1.0187772446150192,0.9894316155840303,0.22445796287630634,0.06739731160133015,1.1645609109343316,0.08564456612308058,1.0,0.7869420636035783,3.396595609290487,6.010860484544695,9709284.622738147,12733755.315463465,-19597917.911891274,758155.7262087723,14885939.312443204,8192973.170320603,-6106006.870219037,8192973.170320603,11731033.22596154,14796264.979235716,136973467.86838484,136973467.86838484,11485521.206063654,11731033.22596154,11747337.650181083,11731033.22596154,11902229.680266747,11747337.650181083,11731033.22596154,11576141.195875878,0.049402405385216765,0.04899479477972818,1951639.5790793556,1936965.5972817664,4737626.567446257,1923164.1141374377,7899493.5343688205,7899493.5343688205,174057880.7557365,121794048.91998985,52263831.83574665,51244805.32202519,51244805.32202519,104821143.3074451,104894513.21643303,-22377822.241323438,-22377822.241323438,60864415.611555845,59225820.97749172,0.0016793556946129793,23510.97972458171,122.66609191894533,2022-03-31,1,0,0,0,0,0,0,0,0,0,0,-8.583177479414532,0
124.18409881591796,122.65112380981445,118.81166458129883,130.27648956298827,123.95784558003415,122.78619247138626,122.70907004738041,132.29603705689468,52.2682448836234,50.69024323750161,56.90044782891158,-1.3401340091202911,-3.0335851050199514,1.6934510958996603,31.595203503816045,102.23720895601579,-24.299120297185485,60.28065843367375,2.352406154642339,3.7184332683534187,2.9648417919603873,2.8170216131350116,128.32986508358476,124.18409881591796,120.03833254825116,2.8825225830077983,2.4434019791380464,2.9207344544239646,0.0,78.57142857142857,78.57142857142857,0.4077981949223989,0.02243083600104212,1.0214841341020464,1.0086556818545938,0.22445796287630634,0.06739731160133015,1.1645609109343316,0.08564456612308058,1.0,0.7869420636035783,3.396595609290487,6.010860484544695,9496275.230423754,12454392.87147095,-19167964.44495273,741522.7509902678,14559360.680733647,8013229.728443217,-5972048.822491513,8013229.728443217,11473669.233064467,14471653.688681034,133968443.6789084,133968443.6789084,11233543.435550243,11473669.233064467,11489615.958892215,11473669.233064467,11641109.854255818,11489615.958892215,11473669.233064467,11322175.337700864,0.04831857925807552,0.04791991111238183,1908823.0815813993,1894471.0283364262,4633689.048323488,1880972.3322306736,7726188.663543759,7726188.663543759,170239271.57412052,119122041.9332753,51117229.64084524,50120559.27661101,50120559.27661101,102521500.34658994,102593260.6128148,-21886881.198583715,-21886881.198583715,59529127.51498215,57926481.56929351,0.0016425127602580126,22995.17864361218,125.41759490966795,2022-04-01,1,0,0,0,0,0,0,0,0,0,0,-12.13303213416361,0
124.89910736083985,123.06852645874024,119.69466934204101,129.88774536132811,124.24476997816079,123.15572452648222,122.90997944995505,132.00280496738563,51.23325469552973,44.35751752462679,50.5462838560623,-1.0556297459246906,-2.6379940332008993,1.5823642872762087,29.34465883227181,84.67513083431702,-33.333476120011184,61.82566426920106,3.4597708941583427,3.585860083617343,2.8728567250837025,1.862408682048354,127.82266379447059,124.89910736083985,121.97555092720911,4.174026489257827,2.9888160963957864,3.5643928723457634,0.0,71.42857142857143,71.42857142857143,0.015463268837499971,-0.004775854103128863,1.014694761237869,1.0002249796019256,0.22445796287630634,0.06739731160133015,1.1645609109343316,0.08564456612308058,1.0,0.7869420636035783,3.396595609290487,6.010860484544695,9541845.693329664,12514158.66749029,-19259947.142539475,745081.1498569763,14629227.73805203,8051683.3936157115,-6000707.325192207,8051683.3936157115,11528728.759614935,14541099.860111957,134611327.74082705,134611327.74082705,11287450.653065551,11528728.759614935,11544752.010149494,11528728.759614935,11696972.8902278,11544752.010149494,11528728.759614935,11376507.879536627,0.048550449119712645,0.048149867856348685,1917983.088986668,1903562.1635055654,4655925.067159342,1889998.6902303183,7763264.883993656,7763264.883993656,171056211.08168066,119693681.49315296,51362529.58852769,50361076.43011777,50361076.43011777,103013477.68667743,103085582.31408295,-21991911.35868172,-21991911.35868172,59814794.24550737,58204457.566784225,0.001650394805059539,23105.527270833543,124.81861877441406,2022-04-04,1,0,0,0,0,0,0,0,0,0,0,-13.873219110787357,0
124.2477310180664,123.25102386474609,120.38113937377929,129.47562561035156,124.13657374357855,123.29471666246982,123.00618914752258,131.68583933236712,49.64529510411211,44.21867978513736,46.422146849088584,-0.8923678047210188,-2.2888687875049234,1.3965009827839046,27.487288025519863,49.010764063843574,-43.61624574550936,60.05479603696353,1.4947139217795558,3.4834784997269934,2.811066336332282,2.1525179091524507,126.1092866080526,124.2477310180664,122.38617542808021,1.8249740600585795,3.1179720127916943,3.7172540028889927,0.0,64.28571428571429,64.28571428571429,-0.078258100469705,-0.007197944576071258,1.0175290578102356,0.9986424867580315,0.22445796287630634,0.06739731160133015,1.1645609109343316,0.08564456612308058,1.0,0.7869420636035783,3.396595609290487,6.010860484544695,9611025.320908783,12604887.952358957,-19399584.274949383,750483.0855117689,14735291.549940754,8110059.149885246,-6044213.2370786555,8110059.149885246,11612313.548940167,14646524.733374845,135587277.44912627,135587277.44912627,11369286.144603904,11612313.548940167,11628452.970133968,11612313.548940167,11781777.471475083,11628452.970133968,11612313.548940167,11458989.047599053,0.04890244621721849,0.04849896068737346,1931888.7168980376,1917363.2378236162,4689681.132027119,1903701.4275955388,7819549.568396819,7819549.568396819,172296390.95442772,120561476.31769708,51734914.636730656,50726200.81211806,50726200.81211806,103760338.85494973,103832966.25032184,-22151355.588492535,-22151355.588492535,60248459.31646094,58626447.48648389,0.0016623603829615528,23273.04536146174,123.92018127441406,2022-04-05,1,0,0,0,0,0,0,0,0,0,0,-10.578104334649687,0
124.47234191894532,123.75639724731445,120.94781455993652,129.11527755737305,124.60412340148075,123.70280867243625,123.24743043988092,131.44479554354038,52.50232404169829,54.481728378420996,47.68597522939504,-0.6251322906176426,-1.9561214881274673,1.3309891975098247,26.162563641744946,53.90493225179763,-35.4327837133577,61.64444906161437,4.194475095860173,3.5388204895055897,2.8188962882740065,4.258266356627345,126.61132596840933,124.47234191894532,122.3333578694813,5.053733825683594,3.2219993710955084,3.8501362922864075,0.0,57.142857142857146,57.142857142857146,0.6483505427765637,0.013065195888358305,1.0350377562788577,1.0224864463247478,0.22445796287630634,0.06739731160133015,1.1645609109343316,0.08564456612308058,1.0,0.7869420636035783,3.396595609290487,6.010860484544695,9487074.829849288,12442326.519080259,-19149393.69517858,740804.3318018336,14545254.944840303,8005466.166245622,-5966262.844296488,8005466.166245622,11462553.047987511,14457632.9271003,133838649.2788646,133838649.2788646,11222659.894691339,11462553.047987511,11478484.32394024,11462553.047987511,11629831.445491152,11478484.32394024,11462553.047987511,11311205.9264366,0.048271766136764635,0.04787348423794645,1906973.7315414941,1892635.5831840395,4629199.730738683,1879149.9651966428,7718703.199096524,7718703.199096524,170074336.43334353,119006631.3668752,51067705.066468336,50072000.31942286,50072000.31942286,102422173.10008577,102493863.84187305,-21865676.245118637,-21865676.245118637,59471453.13153215,57870359.89828302,0.001640921423130943,22972.899923833207,125.53922271728516,2022-04-06,1,0,0,0,0,0,0,0,0,0,0,-11.057330386977513,0
125.04884490966796,124.19064483642578,121.55426597595215,128.76443939208986,124.91895122517336,124.03840834518577,123.46659010013593,131.21357245840383,52.51913974615502,71.5667914051358,56.755733189564715,-0.4078871285419865,-1.6464746162103712,1.2385874876683847,24.76702945511163,68.07053834860187,-35.405150485835385,60.7197914486566,3.5827196660357385,3.5226926968885075,2.8058397338206302,3.313031392866435,126.29883519800215,125.04884490966796,123.79885462133377,4.342475891113267,3.2957409504744093,3.9446244851136782,0.0,50.0,50.0,0.21468719557927365,7.475078362229048e-05,1.0269530123620128,1.005697537373967,0.22445796287630634,0.06739731160133015,1.1645609109343316,0.08564456612308058,1.0,0.7869420636035783,3.396595609290487,6.010860484544695,9486365.716578247,12441396.514941413,-19147962.369986657,740748.9602365886,14544167.756903341,8004867.79610507,-5965816.894808655,8004867.79610507,11461696.27720915,14456552.288488261,133828645.48274368,133828645.48274368,11221821.054773826,11461696.27720915,11477626.36237553,11461696.27720915,11628962.171456123,11477626.36237553,11461696.27720915,11310360.468128556,0.04826815805412609,0.047869905924966635,1906831.1944154764,1892494.117765736,4628853.7202958185,1879009.507763504,7718126.263110261,7718126.263110261,170061624.193671,118997736.19284552,51063888.00082548,50068257.67792684,50068257.67792684,102414517.53464577,102486202.91789447,-21864041.890854146,-21864041.890854146,59467007.92609,57866034.36686899,0.0016407987721369596,22971.182809917434,125.5486068725586,2022-04-07,1,0,0,0,0,0,0,0,0,0,0,-10.584697640792452,0
124.77182159423828,124.47796020507812,122.12983360290528,128.38514358520507,124.62346026095541,124.03733016106463,123.5204842175058,130.93196092405543,49.47176653606742,75.96454964799823,67.33768981051833,-0.35397724545401843,-1.3879751420591007,1.0339978966050822,23.290100148281887,58.52687776166916,-50.65938018944065,60.048056097310685,2.3713846993768106,3.480308656221336,2.805965584990532,2.9293161275481054,126.1765022045831,124.77182159423828,123.36714098389345,2.8731536865234233,3.4033819834819616,4.078946773822494,35.714285714285715,42.85714285714286,7.142857142857143,-0.594248469248472,-0.012076028382999593,1.023667333707467,0.9861596798958326,0.22445796287630634,0.06739731160133015,1.1645609109343316,0.08564456612308058,1.0,0.7869420636035783,3.396595609290487,6.010860484544695,9602323.649512509,12593475.684751082,-19382020.19599334,749803.6099115561,14721950.448370984,8102716.429689397,-6038740.901330705,8102716.429689397,11601799.942609992,14633263.99988682,135464518.85735446,135464518.85735446,11358992.571469171,11601799.942609992,11617924.751425294,11601799.942609992,11771110.435170665,11617924.751425294,11601799.942609992,11448614.25886462,0.04885817071036591,0.04845505048998336,1930139.6151916832,1915627.2872579112,4685435.168375829,1901977.8462182723,7812469.871013955,7812469.871013955,172140396.5077595,120452321.85030805,51688074.657451466,50680274.106495075,50680274.106495075,103666395.87357837,103738957.51324724,-22131300.099002384,-22131300.099002384,60193911.30752342,58573368.02158554,0.001660855307976135,23251.97431166589,124.03247833251952,2022-04-08,1,0,0,0,0,0,0,0,0,0,0,-9.719118039193111,0
124.46859588623047,124.68385162353516,122.58841552734376,127.96439865112305,124.18313691876195,123.90372290166651,123.49972288577905,130.63276599504835,48.02680535369455,56.022401951642564,67.85124766825885,-0.3659388976393103,-1.1835678931751425,0.8176289955358322,22.204426350377595,24.972810715769498,-58.00401214901539,57.86689402385775,1.6981635247417692,3.457664228787325,2.804212812097267,3.1632866721451762,126.29362740165179,124.46859588623047,122.64356437080916,2.0589141845703267,3.307133759772255,3.9728787251007844,28.571428571428573,35.714285714285715,7.142857142857143,-0.09171512152841237,-0.0058854592600132705,1.0257230216119737,0.9976526006033263,0.22445796287630634,0.06739731160133015,1.1645609109343316,0.08564456612308058,1.0,0.7869420636035783,3.396595609290487,6.010860484544695,9659172.314655865,12668032.87614816,-19496767.627567336,754242.6744441607,14809108.855215454,8150686.965767543,-6074492.076975014,8150686.965767543,11670486.113173625,14719897.356087651,136266509.84957835,136266509.84957835,11426241.248834267,11670486.113173625,11686706.385742318,11670486.113173625,11840798.975144887,11686706.385742318,11670486.113173625,11516393.523771055,0.04914742588313563,0.04874191906891834,1941566.6264723877,1926968.3811605652,4713174.364080966,1913238.1312947113,7858722.059531094,7858722.059531094,173159519.80706745,121165436.08812645,51994083.71894101,50980316.683397785,50980316.683397785,104280132.34411846,104353123.57067758,-22262324.100529257,-22262324.100529257,60550277.49892584,58920140.10577233,0.0016706880745752375,23389.633044053327,123.302490234375,2022-04-11,1,0,0,0,0,0,0,0,0,0,0,-10.122523250311358,0
123.77604064941406,124.01188583374024,122.8382957458496,127.46120849609375,122.94122630928531,123.27711966324206,123.20997833383171,130.23373223407907,42.782057639741396,31.615357223070358,54.5341029409037,-0.5980986776780668,-1.0664740500757275,0.4683753723976607,22.250552903426815,-92.20847507253553,-86.62927786192618,48.98098322100646,-5.283702689822589,3.5710028211715588,2.96453573650672,5.044404522166602,127.52348289978198,123.77604064941406,120.02859839904613,-6.71965789794919,2.820649577771631,3.4028899853046113,21.42857142857143,28.571428571428573,7.142857142857143,-0.6252310758438325,-0.02307402825875604,1.0421818707242134,0.9744851978310985,0.22445796287630634,0.06739731160133015,1.1645609109343316,0.08564456612308058,1.0,0.7869420636035783,3.396595609290487,6.010860484544695,9887312.441330269,12967239.322718622,-19957262.056219954,772057.1427739001,15158885.405431628,8343198.155782468,-6217965.590727432,8343198.155782468,11946131.488727335,15067566.81865192,139484990.46115127,139484990.46115127,11696117.801503908,11946131.488727335,11962734.868141828,11946131.488727335,12120466.972579505,11962734.868141828,11946131.488727335,11788399.384289656,0.050308239625912195,0.04989315514054988,1987424.5159147491,1972481.474441706,4824494.895637122,1958426.9296112703,8044337.326321604,8044337.326321604,177249376.9394144,124027244.22625878,53222132.71315563,52184421.49974985,52184421.49974985,106743126.25577211,106817841.46313733,-22788138.24639092,-22788138.24639092,61980415.3543004,60311775.72314391,0.0017101480796927247,23942.073115698146,120.45740509033205,2022-04-12,1,0,0,0,0,0,0,0,0,0,0,-10.887651610247993,0
123.1115707397461,123.79195632934571,122.96557579040527,126.9717660522461,122.69977526250531,123.08434757336993,123.11539688955682,129.91934560407384,46.66136014979384,27.816718484986325,38.484825886566405,-0.6328178759651593,-0.9797428152536138,0.3469249392884546,22.293384702686804,-94.13954938595973,-68.92673515625545,51.43886916350606,-1.7676923148622015,3.4890702017834303,2.854818742548214,2.423946149737759,126.53720880565024,123.1115707397461,119.68593267384196,-2.1992950439452983,2.4949141527101597,3.0214560582087557,14.285714285714286,21.42857142857143,7.142857142857143,0.7992211571883978,0.014606558038452233,1.0201887265743559,1.016106380303578,0.22445796287630634,0.06739731160133015,1.1645609109343316,0.08564456612308058,1.0,0.7869420636035783,3.396595609290487,6.010860484544695,9744971.943060862,12780559.34094128,-19669951.764163148,760942.3935387575,14940653.877438398,8223087.1559833465,-6128450.029683111,8223087.1559833465,11774151.659164215,14850649.938417686,137476925.76600218,137476925.76600218,11527737.238478051,11774151.659164215,11790516.011713436,11774151.659164215,11945977.360931031,11790516.011713436,11774151.659164215,11618690.309946619,0.049583988224138384,0.04917487941040787,1958813.0001417047,1944085.0828474062,4755040.126060648,1930232.871151074,7928528.810097376,7928528.810097376,174697645.6392044,122241713.5426778,52455932.0965266,51433160.062200315,51433160.062200315,105206422.53893918,105280062.12541066,-22460073.87380526,-22460073.87380526,61088128.06624046,59443510.63504379,0.0016855283125697207,23597.39637597609,122.21687316894533,2022-04-13,1,0,0,0,0,0,0,0,0,0,0,-10.739661943379229,0
