SMA_5,SMA_10,SMA_20,SMA_50,EMA_5,EMA_10,EMA_20,EMA_50,RSI,STOCH_K,STOCH_D,MACD,MACD_Signal,MACD_Hist,ADX,CCI,WILLR,ULTOSC,ROC,ATR,NATR,TRANGE,BB_Upper,BB_Middle,BB_Lower,MOM,PPO,APO,AROON_Up,AROON_Down,AROONOSC,BOP,Price_Change,High_Low_Ratio,Close_Open_Ratio,ROE,ROA,Debt_to_Equity,Profit_Margin,Operating_Margin,Asset_Turnover,Financial_Leverage,EPS_Calc,Free_Cash_Flow,Operating_Cash_Flow,Investing_Cash_Flow,Financing_Cash_Flow,Beginning_Cash_Position,End_Cash_Position,Changes_In_Cash,Cash_And_Cash_Equivalents,Net_Income,Pretax_Income,Total_Revenue,Operating_Revenue,Normalized_Income,Net_Income_Common_Stockholders,Net_Income_From_Continuing_Operations,Net_Income_From_Continuing_And_Discontinued_Operation,Net_Income_Including_Noncontrolling_Interests,Net_Income_Continuous_Operations,Diluted_NI_Availto_Com_Stockholders,Net_Income_From_Continuing_Operation_Net_Minority_Interest,Basic_EPS,Diluted_EPS,Diluted_Average_Shares,Basic_Average_Shares,Share_Issued,Ordinary_Shares_Number,Capital_Stock,Common_Stock,Total_Assets,Total_Liabilities_Net_Minority_Interest,Total_Equity_Gross_Minority_Interest,Common_Stock_Equity,Stockholders_Equity,Total_Capitalization,Invested_Capital,Net_Tangible_Assets,Tangible_Book_Value,Total_Debt,Long_Term_Debt_And_Capital_Lease_Obligation,Tax_Rate_For_Calcs,Tax_Effect_Of_Unusual_Items,Close,Date,Sector_basic-materials,Sector_communication-services,Sector_consumer-cyclical,Sector_consumer-defensive,Sector_energy,Sector_financial-services,Sector_healthcare,Sector_industrials,Sector_real-estate,Sector_technology,Sector_utilities,Target_3M_Return,Target_Direction
77.28426361083984,80.56891174316407,84.56903343200683,91.11619750976563,77.28426361083984,80.56891174316407,84.56903343200683,91.11619750976563,73.71894496125752,90.93568774952108,90.51438366520954,3.36560089536448,4.22750499765636,-0.8619041022918799,50.93219697402607,84.48054070158771,-22.070023200978916,58.776167300605294,19.786756118582694,3.1539002778046483,3.7396131334280978,2.4377009188524994,81.55576747200624,77.28426361083984,73.01275974967345,14.62335205078125,5.654904426065216,4.914112580128204,7.142857142857143,78.57142857142857,71.42857142857143,-0.05262946554055615,-0.30173139109586766,1.0128915456939303,0.9993250358982368,0.2102795311091073,0.12197928653624857,0.24116321009918845,0.23712440896842749,1.0,0.5144105031907104,1.7238954012623986,7.986301369863014,66856327.90786431,118950410.57236089,-46262251.5921854,-47263540.45378871,45044467.841586776,70482617.29853575,25424618.52638677,70482617.29853575,63108260.142133,80279011.02557355,266139873.22804758,266139873.22804758,79178215.70061578,63108260.142133,63108260.142133,63108260.142133,63108260.142133,63108260.142133,63108260.142133,63108260.142133,0.10865337241452142,0.10811213519203315,7902063.448328831,7861470.656642211,7922650.921550396,7919169.846106518,2787371.695814622,2787371.695814622,517368660.9765431,217252621.10679403,300116039.8697491,300116039.8697491,300116039.8697491,365862831.47151244,365862831.47151244,300116039.8697491,300116039.8697491,72376947.57724473,68628879.81151341,0.0028956191403122773,-4375280.521011851,73.90474700927734,2021-12-31,0,0,0,0,1,0,0,0,0,0,0,37.97960801057682,1
77.28426361083984,80.56891174316407,84.56903343200683,91.11619750976563,77.28426361083984,80.56891174316407,84.56903343200683,91.11619750976563,73.71894496125752,90.93568774952108,90.51438366520954,3.36560089536448,4.22750499765636,-0.8619041022918799,50.93219697402607,84.48054070158771,-22.070023200978916,58.776167300605294,19.786756118582694,3.1539002778046483,3.7396131334280978,2.4377009188524994,81.55576747200624,77.28426361083984,73.01275974967345,14.62335205078125,5.654904426065216,4.914112580128204,7.142857142857143,78.57142857142857,71.42857142857143,0.9658708314997614,0.02623011439330636,1.033186094402458,1.032038964931389,0.2102795311091073,0.12197928653624857,0.24116321009918845,0.23712440896842749,1.0,0.5144105031907104,1.7238954012623986,7.986301369863014,65147501.491309166,115910076.01904449,-45079803.197487555,-46055499.43516351,43893145.61112492,68681104.08181126,24774773.386393424,68681104.08181126,61495233.1421708,78227105.10988408,259337422.9574094,259337422.9574094,77154445.76231802,61495233.1421708,61495233.1421708,61495233.1421708,61495233.1421708,61495233.1421708,61495233.1421708,61495233.1421708,0.10587622687213369,0.10534882350041697,7700089.227064269,7660533.974185514,7720150.491036955,7716758.390771084,2716127.364341163,2716127.364341163,504144883.0240229,211699713.4070957,292445169.6169272,292445169.6169272,292445169.6169272,356511494.19621706,356511494.19621706,292445169.6169272,292445169.6169272,70527015.88281982,66874747.53368146,0.0028216080386845093,-4263449.746452293,75.84327697753906,2022-01-03,0,0,0,0,1,0,0,0,0,0,0,34.96562192873304,1
77.28426361083984,80.56891174316407,84.56903343200683,91.11619750976563,77.28426361083984,80.56891174316407,84.56903343200683,91.11619750976563,73.71894496125752,90.93568774952108,90.51438366520954,3.36560089536448,4.22750499765636,-0.8619041022918799,50.93219697402607,84.48054070158771,-22.070023200978916,58.776167300605294,19.786756118582694,3.1539002778046483,3.7396131334280978,4.251404589861451,81.55576747200624,77.28426361083984,73.01275974967345,14.62335205078125,5.654904426065216,4.914112580128204,7.142857142857143,78.57142857142857,71.42857142857143,0.7142854783734492,0.04596300346144666,1.0504091111867901,1.0358500305590186,0.2102795311091073,0.12197928653624857,0.24116321009918845,0.23712440896842749,1.0,0.5144105031907104,1.7238954012623986,7.986301369863014,62284709.187336415,110816611.71136904,-43098850.57913443,-44031671.562713236,41964338.572079115,65663033.83056778,23686089.569521375,65663033.83056778,58792933.343399525,74789552.64287937,247941296.29745394,247941296.29745394,73764029.42263517,58792933.343399525,58792933.343399525,58792933.343399525,58792933.343399525,58792933.343399525,58792933.343399525,58792933.343399525,0.10122368240726803,0.1007194548485768,7361722.356892222,7323905.289990378,7380902.063924207,7377659.023534973,2596771.9272599276,2596771.9272599276,481991123.352964,202396942.05866697,279594181.29429704,279594181.29429704,279594181.29429704,340845223.9863164,340845223.9863164,279594181.29429704,279594181.29429704,67427830.28598714,63936054.44205025,0.002697617438998177,-4076099.9503262453,79.32926177978516,2022-01-04,0,0,0,0,1,0,0,0,0,0,0,27.052769107444856,1
77.28426361083984,80.56891174316407,84.56903343200683,91.11619750976563,77.28426361083984,80.56891174316407,84.56903343200683,91.11619750976563,73.71894496125752,90.93568774952108,90.51438366520954,3.36560089536448,4.22750499765636,-0.8619041022918799,50.93219697402607,84.48054070158771,-22.070023200978916,58.776167300605294,19.786756118582694,3.1539002778046483,3.7396131334280978,3.1448825582885434,81.55576747200624,77.28426361083984,73.01275974967345,14.62335205078125,5.654904426065216,4.914112580128204,7.142857142857143,78.57142857142857,71.42857142857143,-0.8994715936155243,-0.018353322250908688,1.0404061855263174,0.964948437877537,0.2102795311091073,0.12197928653624857,0.24116321009918845,0.23712440896842749,1.0,0.5144105031907104,1.7238954012623986,7.986301369863014,63449213.04084154,112888490.55697995,-43904646.7084876,-44854908.14646013,42748923.337980464,66890700.41079611,24128935.70203223,66890700.41079611,59892153.33383626,76187852.85798681,252576921.93894196,252576921.93894196,75143155.97927307,59892153.33383626,59892153.33383626,59892153.33383626,59892153.33383626,59892153.33383626,59892153.33383626,59892153.33383626,0.10311620739080297,0.10260255255946649,7499360.537512944,7460836.4251627065,7518898.837256356,7515595.163477649,2645322.3813829906,2645322.3813829906,491002653.27456325,206181049.29847232,284821603.97609097,284821603.97609097,284821603.97609097,347217824.61269265,347217824.61269265,284821603.97609097,284821603.97609097,68688492.32047386,65131432.61346859,0.0027480533476502912,-4152308.60829959,77.87330627441406,2022-01-05,0,0,0,0,1,0,0,0,0,0,0,30.622278218596826,1
77.28426361083984,80.56891174316407,84.56903343200683,91.11619750976563,77.28426361083984,80.56891174316407,84.56903343200683,91.11619750976563,73.71894496125752,90.93568774952108,90.51438366520954,3.36560089536448,4.22750499765636,-0.8619041022918799,50.93219697402607,84.48054070158771,-22.070023200978916,58.776167300605294,19.786756118582694,3.1539002778046483,3.7396131334280978,3.1615461855462144,81.55576747200624,77.28426361083984,73.01275974967345,14.62335205078125,5.654904426065216,4.914112580128204,7.142857142857143,78.57142857142857,71.42857142857143,-0.6113082111642498,0.02051305916228152,1.0299249427956758,0.9822107623965697,0.2102795311091073,0.12197928653624857,0.24116321009918845,0.23712440896842749,1.0,0.5144105031907104,1.7238954012623986,7.986301369863014,62173837.43518746,110619349.30029002,-43022131.18617809,-43953291.673974864,41889638.701019846,65546148.390992,23643926.440137066,65546148.390992,58688277.230867095,74656421.2715983,247499941.00641614,247499941.00641614,73632723.56451426,58688277.230867095,58688277.230867095,58688277.230867095,58688277.230867095,58688277.230867095,58688277.230867095,58688277.230867095,0.10104349617578531,0.10054016618238167,7348617.903693479,7310868.154188204,7367763.469316568,7364526.201797994,2592149.466028864,2592149.466028864,481133140.69456136,202036659.35223028,279096481.34233105,279096481.34233105,279096481.34233105,340238492.291041,340238492.291041,279096481.34233105,279096481.34233105,67307803.36790483,63822243.163584456,0.0026928154647095966,-4068844.1671762005,79.4707260131836,2022-01-06,0,0,0,0,1,0,0,0,0,0,0,28.528538734207938,1
78.8367416381836,80.56891174316407,84.56903343200683,91.11619750976563,78.74522145589192,80.56891174316407,84.56903343200683,91.11619750976563,73.71894496125752,90.93568774952108,90.51438366520954,3.36560089536448,4.22750499765636,-0.8619041022918799,50.93219697402607,84.48054070158771,-22.070023200978916,58.776167300605294,19.786756118582694,3.1539002778046483,3.7396131334280978,2.8120893332293804,82.68846222856465,78.8367416381836,74.98502104780255,14.62335205078125,5.654904426065216,4.914112580128204,7.142857142857143,78.57142857142857,71.42857142857143,0.6360956428898737,0.027637990024756087,1.0356201630852437,1.0223935160716717,0.2102795311091073,0.12197928653624857,0.24116321009918845,0.23712440896842749,1.0,0.5144105031907104,1.7238954012623986,7.986301369863014,60501692.26780889,107644277.82357983,-41865064.93900801,-42771182.16787218,40763030.47147051,63783306.01558723,23008030.716699637,63783306.01558723,57109875.073276795,72648561.06555559,240843510.46661264,240843510.46661264,71652395.37586619,57109875.073276795,57109875.073276795,57109875.073276795,57109875.073276795,57109875.073276795,57109875.073276795,57109875.073276795,0.09832596415917938,0.09783617106249606,7150979.211576683,7114244.729325433,7169609.863429705,7166459.661169766,2522434.4479191727,2522434.4479191727,468193221.1195994,196602949.00869045,271590272.110909,271590272.110909,271590272.110909,331087888.53051704,331087888.53051704,271590272.110909,271590272.110909,65497581.8539789,62105764.65944681,0.0026203930672558393,-3959413.924623573,81.6671371459961,2022-01-07,0,0,0,0,1,0,0,0,0,0,0,21.966476010752714,1
79.98487701416016,80.56891174316407,84.56903343200683,91.11619750976563,79.69146558973524,80.56891174316407,84.56903343200683,91.11619750976563,73.71894496125752,90.93568774952108,90.51438366520954,3.36560089536448,4.22750499765636,-0.8619041022918799,50.93219697402607,84.48054070158771,-22.070023200978916,58.776167300605294,19.786756118582694,3.1539002778046483,3.7396131334280978,2.7288932870170584,82.8886620582865,79.98487701416016,77.08109197003382,14.62335205078125,5.654904426065216,4.914112580128204,7.142857142857143,78.57142857142857,71.42857142857143,-0.09146437908800875,-0.0010185650125767998,1.0341559806413743,0.9969499486590463,0.2102795311091073,0.12197928653624857,0.24116321009918845,0.23712440896842749,1.0,0.5144105031907104,1.7238954012623986,7.986301369863014,60563380.00772815,107754032.31085573,-41907750.7076346,-42814791.81683757,40804592.6018472,63848339.70051729,23031489.786383566,63848339.70051729,57168104.50436027,72722633.79596259,241089075.36369258,241089075.36369258,71725452.41220449,57168104.50436027,57168104.50436027,57168104.50436027,57168104.50436027,57168104.50436027,57168104.50436027,57168104.50436027,0.09842621766080895,0.09793592516934789,7158270.37533156,7121498.43847198,7176920.023063258,7173766.608845928,2525006.331024489,2525006.331024489,468670592.5876328,196803406.0724718,271867186.515161,271867186.515161,271867186.515161,331425466.91539395,331425466.91539395,271867186.515161,271867186.515161,65564363.42063102,62169087.91726314,0.0026230648293167017,-3963450.957097537,81.58395385742188,2022-01-10,0,0,0,0,1,0,0,0,0,0,0,22.733259443326205,1
81.12469024658203,80.56891174316407,84.56903343200683,91.11619750976563,81.47041970712168,80.56891174316407,84.56903343200683,91.11619750976563,73.71894496125752,90.93568774952108,90.51438366520954,3.36560089536448,4.22750499765636,-0.8619041022918799,50.93219697402607,84.48054070158771,-22.070023200978916,58.776167300605294,19.786756118582694,3.1539002778046483,3.7396131334280978,4.168220326315023,85.94553285998651,81.12469024658203,76.30384763317755,14.62335205078125,5.654904426065216,4.914112580128204,7.142857142857143,78.57142857142857,71.42857142857143,0.5688617283236205,0.04221876878500064,1.0514215551733332,1.0286864470849837,0.2102795311091073,0.12197928653624857,0.24116321009918845,0.23712440896842749,1.0,0.5144105031907104,1.7238954012623986,7.986301369863014,58110045.43540491,103389072.94528325,-40210128.58604521,-41080426.77714417,39151657.81308702,61261936.18154709,22098517.582093872,61261936.18154709,54852307.61196691,69776745.51067746,231322907.03683043,231322907.03683043,68819958.49664144,54852307.61196691,54852307.61196691,54852307.61196691,54852307.61196691,54852307.61196691,54852307.61196691,54852307.61196691,0.0944391145206034,0.09396868306595532,6868299.237862065,6833016.87876346,6886193.415447678,6883167.741460819,2422721.9914376466,2422721.9914376466,449685427.49810606,188831185.895742,260854241.60236406,260854241.60236406,260854241.60236406,317999902.5557404,317999902.5557404,260854241.60236406,260854241.60236406,62908446.27281539,59650708.449377395,0.002516808282367264,-3802897.3146569356,85.02832794189453,2022-01-11,0,0,0,0,1,0,0,0,0,0,0,19.918898739891393,1
82.65054473876953,80.56891174316407,84.56903343200683,91.11619750976563,82.81447271653164,80.56891174316407,84.56903343200683,91.11619750976563,73.71894496125752,90.93568774952108,90.51438366520954,3.36560089536448,4.22750499765636,-0.8619041022918799,50.93219697402607,84.48054070158771,-22.070023200978916,58.776167300605294,19.786756118582694,3.1539002778046483,3.7396131334280978,1.8719549327485652,87.21158888308649,82.65054473876953,78.08950059445256,14.62335205078125,5.654904426065216,4.914112580128204,7.142857142857143,78.57142857142857,71.42857142857143,-0.23111300998263518,0.0055775622658500446,1.0222222222222224,0.9949655894292595,0.2102795311091073,0.12197928653624857,0.24116321009918845,0.23712440896842749,1.0,0.5144105031907104,1.7238954012623986,7.986301369863014,57787730.76883953,102815612.464859,-39987098.05680274,-40852569.0296613,38934498.22494774,60922139.15702998,21975945.378394958,60922139.15702998,54548062.39746358,69389720.02661909,230039845.47506672,230039845.47506672,68438239.95194429,54548062.39746358,54548062.39746358,54548062.39746358,54548062.39746358,54548062.39746358,54548062.39746358,54548062.39746358,0.0939152961088406,0.09344747396134949,6830203.353370226,6795116.692308392,6847998.278652064,6844989.386946045,2409284.0595792234,2409284.0595792234,447191190.78675336,187783810.0029321,259407380.78382125,259407380.78382125,259407380.78382125,316236076.150304,316236076.150304,259407380.78382125,259407380.78382125,62559516.673248865,59319848.30187292,0.002502848489077446,-3781804.0669960207,85.50257873535156,2022-01-12,0,0,0,0,1,0,0,0,0,0,0,25.44283507245565,1
83.85355987548829,80.56891174316407,84.56903343200683,91.11619750976563,83.70491570994687,80.56891174316407,84.56903343200683,91.11619750976563,73.71894496125752,91.45849442999975,91.89580078602147,3.36560089536448,4.22750499765636,-0.8619041022918799,50.93219697402607,84.48054070158771,-22.070023200978916,58.776167300605294,19.786756118582694,3.1539002778046483,3.7396131334280978,2.2879987587985653,87.508158337971,83.85355987548829,80.19896141300558,14.62335205078125,5.654904426065216,4.914112580128204,7.142857142857143,78.57142857142857,71.42857142857143,0.18315046978140276,-0.00019621675535830274,1.0271317397437836,1.0049261083743843,0.2102795311091073,0.12197928653624857,0.24116321009918845,0.23712440896842749,1.0,0.5144105031907104,1.7238954012623986,7.986301369863014,57799071.91519345,102835790.57001935,-39994945.735285655,-40860586.56137841,38942139.32517284,60934095.44752938,21980258.27335529,60934095.44752938,54558767.74184623,69403338.1244369,230084992.00565472,230084992.00565472,68451671.31678893,54558767.74184623,54558767.74184623,54558767.74184623,54558767.74184623,54558767.74184623,54558767.74184623,54558767.74184623,0.09393372748006544,0.09346581352001532,6831543.816732033,6796450.269728272,6849342.234361628,6846332.7521447735,2409756.894258217,2409756.894258217,447278954.4119281,187820663.5641259,259458290.84780222,259458290.84780222,259458290.84780222,316298139.1448929,316298139.1448929,259458290.84780222,259458290.84780222,62571794.30770487,59331490.13435765,0.0025033396862682447,-3782546.265951318,85.48580169677734,2022-01-13,0,0,0,0,1,0,0,0,0,0,0,19.989138578617457,1
85.22575225830079,82.03124694824218,84.56903343200683,91.11619750976563,85.31264349331745,82.01603670987217,84.56903343200683,91.11619750976563,73.71894496125752,91.14240628852035,91.1788628226804,3.36560089536448,4.22750499765636,-0.8619041022918799,50.93219697402607,84.48054070158771,-22.070023200978916,58.776167300605294,19.786756118582694,3.1539002778046483,3.7396131334280978,3.3691543688468926,89.63949669687206,85.22575225830079,80.81200781972952,14.62335205078125,5.654904426065216,4.914112580128204,7.142857142857143,78.57142857142857,71.42857142857143,0.8997430717633905,0.03558833517257565,1.038088705515149,1.0342700488996914,0.2102795311091073,0.12197928653624857,0.24116321009918845,0.23712440896842749,1.0,0.5144105031907104,1.7238954012623986,7.986301369863014,55812787.71893614,99301804.66245043,-38620506.21555205,-39456399.008752055,37603879.84544392,58840075.132147,21224899.438146327,58840075.132147,52683837.668714456,67018269.48723904,222178045.26285264,222178045.26285264,66099307.02375264,52683837.668714456,52683837.668714456,52683837.668714456,52683837.668714456,52683837.668714456,52683837.668714456,52683837.668714456,0.09070566391075838,0.0902538299684881,6596775.557146064,6562888.011475793,6613962.326275352,6611056.265908853,2326944.8026919337,2326944.8026919337,431908065.4161591,181366144.42728975,250541920.98886937,250541920.98886937,250541920.98886937,305428449.12615144,305428449.12615144,250541920.98886937,250541920.98886937,60421493.930092975,57292543.8798713,0.0024173115911459895,-3652557.81422159,88.5280990600586,2022-01-14,0,0,0,0,1,0,0,0,0,0,0,18.94994249607123,1
86.62128143310547,83.3030792236328,84.56903343200683,91.11619750976563,86.39562890602674,83.20613907743092,84.56903343200683,91.11619750976563,73.71894496125752,87.00606232685061,89.86898768179024,3.36560089536448,4.22750499765636,-0.8619041022918799,50.93219697402607,84.48054070158771,-22.070023200978916,58.776167300605294,16.76921575747943,3.1539002778046483,3.7396131334280978,3.0758106793342535,89.78091424013458,86.62128143310547,83.46164862607635,12.71832275390625,5.654904426065216,4.914112580128204,7.142857142857143,78.57142857142857,71.42857142857143,-0.5258859041148916,0.00037841851053399544,1.035180197274554,0.9820631939354535,0.2102795311091073,0.12197928653624857,0.24116321009918845,0.23712440896842749,1.0,0.5144105031907104,1.7238954012623986,7.986301369863014,55791675.11633841,99264241.23613256,-38605897.02950031,-39441473.6250496,37589655.22410253,58817817.3813007,21216870.58158265,58817817.3813007,52663908.67083634,66992918.12694511,222094000.7818782,222094000.7818782,66074303.28431921,52663908.67083634,52663908.67083634,52663908.67083634,52663908.67083634,52663908.67083634,52663908.67083634,52663908.67083634,0.0906713521927135,0.09021968916809227,6594280.159470073,6560405.43262348,6611460.4272680115,6608555.466192555,2326064.576799375,2326064.576799375,431744685.2354413,181297538.0829649,250447147.15247643,250447147.15247643,250447147.15247643,305312913.0683413,305312913.0683413,250447147.15247643,250447147.15247643,60398637.96747504,57270871.52197297,0.0024163971817236225,-3651176.141584394,88.56159973144531,2022-01-18,0,0,0,0,1,0,0,0,0,0,0,18.655255632650256,1
87.2374267578125,84.18105850219726,84.56903343200683,91.11619750976563,86.96677079249439,84.09757825706706,84.56903343200683,91.11619750976563,73.71894496125752,79.17586689465455,85.77477850334185,3.36560089536448,4.22750499765636,-0.8619041022918799,50.93219697402607,84.48054070158771,-22.070023200978916,58.776167300605294,11.067533705301425,3.1539002778046483,3.7396131334280978,3.4529523834623177,90.10195353986656,87.2374267578125,84.37289997575844,8.779792785644531,5.654904426065216,4.914112580128204,7.142857142857143,78.57142857142857,71.42857142857143,-0.40048628188794544,-0.005109947961508432,1.0399805433787148,0.9845476536360589,0.2102795311091073,0.12197928653624857,0.24116321009918845,0.23712440896842749,1.0,0.5144105031907104,1.7238954012623986,7.986301369863014,56078231.963445015,99774081.60102107,-38804184.392434426,-39644052.67118264,37782722.97233525,59119917.08107369,21325844.537404004,59119917.08107369,52934400.70380642,67337006.72720487,223234718.5770087,223234718.5770087,66413673.70086322,52934400.70380642,52934400.70380642,52934400.70380642,52934400.70380642,52934400.70380642,52934400.70380642,52934400.70380642,0.09113705781551577,0.09068307496213837,6628149.659310238,6594100.945306933,6645418.168290438,6642498.28677237,2338011.69489368,2338011.69489368,433962209.54346967,182228717.34569383,251733492.19777584,251733492.19777584,251733492.19777584,306881059.31179714,306881059.31179714,251733492.19777584,251733492.19777584,60708857.06789463,57565025.808256045,0.0024288082655691628,-3669929.289275005,88.10905456542969,2022-01-19,0,0,0,0,1,0,0,0,0,0,0,18.66628336001761,1
87.485498046875,85.06802139282226,84.56903343200683,91.11619750976563,86.89215892188427,84.57855224317561,84.56903343200683,91.11619750976563,73.71894496125752,60.084277338422986,75.4220688533094,3.36560089536448,4.22750499765636,-0.8619041022918799,50.93219697402607,84.48054070158771,-22.070023200978916,58.776167300605294,11.389819349643048,3.1539002778046483,3.7396131334280978,3.9977150688067127,89.88283315785688,87.485498046875,85.08816293589311,8.86962890625,5.654904426065216,4.914112580128204,7.142857142857143,78.57142857142857,71.42857142857143,-0.05031405297074858,-0.015504869408752397,1.0462881756604183,0.9976865445468324,0.2102795311091073,0.12197928653624857,0.24116321009918845,0.23712440896842749,1.0,0.5144105031907104,1.7238954012623986,7.986301369863014,56961411.20552492,101345429.24666457,-39415313.68380687,-40268409.09550669,38377765.210117884,60050999.99384321,21661706.46735101,60050999.99384321,53768067.569837734,68397501.04885232,226750454.7665391,226750454.7665391,67459626.39853574,53768067.569837734,53768067.569837734,53768067.569837734,53768067.569837734,53768067.569837734,53768067.569837734,53768067.569837734,0.09257238048580553,0.09211124783083266,6732536.762604038,6697951.813481073,6750077.234307366,6747111.367410377,2374833.1731103286,2374833.1731103286,440796704.8885754,185098647.7061138,255698057.18246162,255698057.18246162,255698057.18246162,311714146.4452921,311714146.4452921,255698057.18246162,255698057.18246162,61664964.28624829,58471620.6505611,0.0024670597041049043,-3727727.212902511,86.74293518066406,2022-01-20,0,0,0,0,1,0,0,0,0,0,0,20.907721224285527,1
87.255859375,85.55470962524414,84.56903343200683,91.11619750976563,86.0406420603903,84.53474426030775,84.56903343200683,91.11619750976563,73.71894496125752,38.21798496080029,59.159376397959285,3.36560089536448,4.22750499765636,-0.8619041022918799,50.93219697402607,23.339797628187352,-36.17710716001284,58.776167300605294,6.124119620363566,3.1539002778046483,3.7396131334280978,3.394280498157599,90.45970382506147,87.255859375,84.05201492493853,4.86688232421875,5.654904426065216,4.914112580128204,7.142857142857143,78.57142857142857,71.42857142857143,-0.5695792480735216,-0.02772936883277033,1.0310709307401318,0.9828108004031455,0.2102795311091073,0.12197928653624857,0.24116321009918845,0.23712440896842749,1.0,0.5144105031907104,1.7238954012623986,7.986301369863014,58585962.98146088,104235822.82331969,-40539446.96086111,-41416872.83834099,39472307.38014233,61763667.51071235,22279503.024117585,61763667.51071235,55301544.49413753,70348212.58227229,233217426.81286258,233217426.81286258,69383589.54394123,55301544.49413753,55301544.49413753,55301544.49413753,55301544.49413753,55301544.49413753,55301544.49413753,55301544.49413753,0.09521256481301979,0.09473828055492257,6924550.168219622,6888978.8488623295,6942590.897972273,6939540.443909469,2442563.9292007573,2442563.9292007573,453368322.3151463,190377701.20022988,262990621.11491647,262990621.11491647,262990621.11491647,320604301.36727804,320604301.36727804,262990621.11491647,262990621.11491647,63423662.414052665,60139243.92672932,0.002537420780820204,-3834042.7998193284,84.33760833740234,2022-01-21,0,0,0,0,1,0,0,0,0,0,0,22.782919115902327,1
86.6993621826172,85.96255722045899,84.56903343200683,91.11619750976563,85.94229907297505,84.75490223082353,84.56903343200683,91.11619750976563,75.41405406765601,35.26561160019696,44.52262463314009,3.36560089536448,4.22750499765636,-0.8619041022918799,50.93219697402607,5.451939462060307,-33.39428122495182,58.776167300605294,4.994023415878246,3.3542548295092653,3.9118675676969987,5.9588640016692835,89.79058568797524,86.6993621826172,83.60813867725915,4.0784759521484375,5.654904426065216,4.914112580128204,0.0,71.42857142857143,71.42857142857143,0.6736990864042272,0.016694862333649585,1.0741165494395182,1.0491181406933314,0.2102795311091073,0.12197928653624857,0.24116321009918845,0.23712440896842749,1.0,0.5144105031907104,1.7238954012623986,7.986301369863014,57623939.2485832,102524195.49368446,-39873760.02649382,-40736777.93873732,38824143.6467382,60749463.57941102,21913657.528453313,60749463.57941102,54393453.27977981,69193044.23433396,229387828.59347963,229387828.59347963,68244261.00146021,54393453.27977981,54393453.27977981,54393453.27977981,54393453.27977981,54393453.27977981,54393453.27977981,54393453.27977981,0.09364910588263975,0.09318260971385948,6810844.064191983,6775856.851533462,6828588.552160813,6825588.188752069,2402455.269218405,2402455.269218405,445923687.73706275,187251562.1484015,258672125.58866125,258672125.58866125,258672125.58866125,315339747.6912449,315339747.6912449,258672125.58866125,258672125.58866125,62382200.17014198,59151714.20133859,0.002495754502974459,-3771085.0539944083,85.74561309814453,2022-01-24,0,0,0,0,1,0,0,0,0,0,0,21.68916051812779,1
86.91224212646485,86.76676177978516,84.56903343200683,91.11619750976563,87.1701991988779,85.64055627079809,84.56903343200683,91.11619750976563,79.36434168989436,53.106183128018436,42.19659322967191,3.36560089536448,4.22750499765636,-0.8619041022918799,50.93219697402607,77.82552463086687,-6.943063435600288,58.776167300605294,9.857386425909432,3.6139308017941403,4.03223486928332,6.989718441497516,90.57996797316667,86.91224212646485,83.24451627976302,8.042045593261719,5.654904426065216,4.914112580128204,0.0,64.28571428571429,64.28571428571429,0.5623506595678521,0.04525463417116815,1.0839371606950425,1.0458679945369804,0.2102795311091073,0.12197928653624857,0.24116321009918845,0.23712440896842749,1.0,0.5144105031907104,1.7238954012623986,7.986301369863014,55129092.342437625,98085377.61229897,-38147412.81497556,-38973066.09029238,37143239.91256322,58119296.09628772,20964898.707031026,58119296.09628772,52038471.2983463,66197309.22236034,219456409.08387083,219456409.08387083,65289603.863439746,52038471.2983463,52038471.2983463,52038471.2983463,52038471.2983463,52038471.2983463,52038471.2983463,52038471.2983463,0.08959453784856793,0.08914823878082911,6515966.388986759,6482493.958906347,6532942.6236655945,6530072.161951618,2298440.198854918,2298440.198854918,426617278.85153717,179144445.79036197,247472833.0611752,247472833.0611752,247472833.0611752,301687012.3147482,301687012.3147482,247472833.0611752,247472833.0611752,59681342.833373584,56590721.78928226,0.002387700012402682,-3607814.7187404525,89.6259994506836,2022-01-25,0,0,0,0,1,0,0,0,0,0,0,13.38409438160203,1
87.31452331542968,87.27597503662109,84.56903343200683,91.11619750976563,88.15361963600323,86.45508431433551,84.56903343200683,91.11619750976563,79.80951624200014,76.17874235555517,54.85017902792354,3.36560089536448,4.22750499765636,-0.8619041022918799,50.93219697402607,127.7134027005965,-14.79390891461035,58.776167300605294,5.988748328485505,3.585072113568387,3.9780889858640673,3.2099091666335937,91.77469555580426,87.31452331542968,82.8543510750551,5.092132568359375,5.654904426065216,4.914112580128204,0.0,100.0,100.0,-0.036553347967950976,0.005516937747984452,1.0361082477804662,0.9986997363051056,0.2102795311091073,0.12197928653624857,0.24116321009918845,0.23712440896842749,1.0,0.5144105031907104,1.7238954012623986,7.986301369863014,54826617.30781783,97547215.69581594,-37938110.62040663,-38759233.81020192,36939447.28146642,57800414.80599536,20849871.265207388,57800414.80599536,51752953.475746274,65834106.55480331,218252324.5957233,218252324.5957233,64931381.47395729,51752953.475746274,51752953.475746274,51752953.475746274,51752953.475746274,51752953.475746274,51752953.475746274,51752953.475746274,0.08910296235211033,0.08865911197924801,6480215.443789843,6446926.665825169,6497098.535502705,6494243.823059566,2285829.4202409377,2285829.4202409377,424276571.41908973,178161539.66693443,246115031.75215533,246115031.75215533,246115031.75215533,300031755.7956054,300031755.7956054,246115031.75215533,246115031.75215533,59353891.11101347,56280227.27894192,0.002374599494813401,-3588019.836663049,90.1204605102539,2022-01-26,0,0,0,0,1,0,0,0,0,0,0,9.58175774696631,1
88.36214294433594,87.92382049560547,84.56903343200683,91.11619750976563,89.42942419906726,87.45980231631002,84.56903343200683,91.11619750976563,81.43267363057491,88.5555205611616,72.61348201491175,3.36560089536448,4.22750499765636,-0.8619041022918799,50.93219697402607,140.9444713770753,-8.956536769726513,58.776167300605294,7.576911346610893,3.553485436498229,3.863280622141981,3.142858634586176,94.07727995115134,88.36214294433594,82.64700593752055,6.478454589843764,5.654904426065216,4.914112580128204,0.0,100.0,100.0,0.02266341606799529,0.020645398441231144,1.0327610095526392,1.000729477818824,0.2102795311091073,0.12197928653624857,0.24116321009918845,0.23712440896842749,1.0,0.5144105031907104,1.7238954012623986,7.986301369863014,53717596.13236012,95574051.32555714,-37170706.57286769,-37975220.25710057,36192243.98393581,56631240.28606838,20428124.495588884,56631240.28606838,50706105.719758675,64502428.22369816,213837562.90779018,213837562.90779018,63617963.274143,50706105.719758675,50706105.719758675,50706105.719758675,50706105.719758675,50706105.719758675,50706105.719758675,50706105.719758675,0.08730060654581091,0.08686573428406343,6349135.021513522,6316519.60188246,6365676.605631421,6362879.637705539,2239592.1479996326,2239592.1479996326,415694395.0044367,174557725.8654471,241136669.13898957,241136669.13898957,241136669.13898957,293962777.1347673,293962777.1347673,241136669.13898957,241136669.13898957,58153293.20218464,55141802.78958319,0.002326566600349133,-3515442.13312754,91.98103332519533,2022-01-27,0,0,0,0,1,0,0,0,0,0,0,3.3431103724924025,1
89.88245086669922,88.56915512084962,84.56903343200683,91.11619750976563,90.26599878245109,88.2742287950207,84.56903343200683,91.11619750976563,81.27426916825038,87.59153072001818,84.10859787891167,3.36560089536448,4.22750499765636,-0.8619041022918799,50.93219697402607,121.76979784490045,-9.905319441887857,58.776167300605294,7.549027001386466,3.510984939477159,3.818813876126413,2.958478478203247,94.43172719305247,89.88245086669922,85.33317454034596,6.4533462524414205,5.654904426065216,4.914112580128204,0.0,92.85714285714286,92.85714285714286,-0.014165175368063226,-0.0004553697046267846,1.0328616536908244,0.9995443913279473,0.2102795311091073,0.12197928653624857,0.24116321009918845,0.23712440896842749,1.0,0.5144105031907104,1.7238954012623986,7.986301369863014,53742068.64228379,95617592.68049319,-37187640.697828025,-37992520.900120884,36208732.34368807,56657040.18572278,20437431.08254427,56657040.18572278,50729206.263430804,64531814.05680424,213934982.417543,213934982.417543,63646946.16521866,50729206.263430804,50729206.263430804,50729206.263430804,50729206.263430804,50729206.263430804,50729206.263430804,50729206.263430804,0.08734037870826529,0.08690530832864754,6352027.542419295,6319397.263947963,6368576.662505119,6365778.420344532,2240612.4550314634,2240612.4550314634,415883775.8766167,174637250.37856883,241246525.49804786,241246525.49804786,241246525.49804786,294096699.86211526,294096699.86211526,241246525.49804786,241246525.49804786,58179786.51438494,55166924.135531954,0.0023276265309550154,-3517043.6882730285,91.93914794921876,2022-01-28,0,0,0,0,1,0,0,0,0,0,0,3.223685564460916,1
91.41952209472656,89.05944213867187,85.54534454345703,91.11619750976563,91.32098893439448,89.21181796652262,85.41302731831868,91.11619750976563,82.57442358679991,89.10395486278058,88.4170020479868,3.36560089536448,4.22750499765636,-0.8619041022918799,50.93219697402607,141.26304623901362,-9.959426331812038,58.776167300605294,5.538207902664305,3.5906494660871187,3.8431041606019547,4.626288312016598,94.18147936837994,91.41952209472656,88.65756482107318,4.902870178222642,5.654904426065216,4.914112580128204,0.0,100.0,100.0,0.17210238321973745,0.016226181363856673,1.0512629701655107,1.0085949931071077,0.2102795311091073,0.12197928653624857,0.24116321009918845,0.23712440896842749,1.0,0.5144105031907104,1.7238954012623986,7.986301369863014,52883963.85355635,94090857.36422057,-36593862.05531454,-37385890.65785718,35630584.02519512,55752391.76546752,20111104.651048854,55752391.76546752,49919208.13863324,63501428.3633171,210519061.93798822,210519061.93798822,62630689.242624484,49919208.13863324,49919208.13863324,49919208.13863324,49919208.13863324,49919208.13863324,49919208.13863324,49919208.13863324,0.08594580646509967,0.0855176828961577,6250604.106552703,6218494.838882056,6266888.985243404,6264135.42288504,2204836.380051125,2204836.380051125,409243319.5516253,171848800.57330516,237394518.97832015,237394518.97832015,237394518.97832015,289400829.5155455,289400829.5155455,237394518.97832015,237394518.97832015,57250824.256764404,54286068.54184128,0.002290461093839518,-3460886.712791512,93.43096923828124,2022-01-31,0,0,0,0,1,0,0,0,0,0,0,2.686044893658318,1
92.46546325683593,89.6888526916504,86.4959659576416,91.11619750976563,92.49922771000648,90.23797929283313,86.31232997954838,91.11619750976563,83.73584530827458,85.84253569300613,87.51267375860165,3.36560089536448,4.22750499765636,-0.8619041022918799,50.93219697402607,148.89073070534167,-9.210533709247239,58.776167300605294,7.107036852170068,3.631099888557247,3.828024765149634,4.156955380668919,95.64743455563386,92.46546325683593,89.283491958038,6.2941055297851705,5.654904426065216,4.914112580128204,57.142857142857146,100.0,42.85714285714286,0.6048388213198571,0.01524907677363041,1.0451032011404477,1.0272281720066312,0.2102795311091073,0.12197928653624857,0.24116321009918845,0.23712440896842749,1.0,0.5144105031907104,1.7238954012623986,7.986301369863014,52089644.85997544,92677609.38353454,-36044220.96261001,-36824353.267738156,35095411.402319014,54914988.883953065,19809035.15318637,54914988.883953065,49169419.879968725,62547634.680071704,207357058.2373724,207357058.2373724,61689974.09153934,49169419.879968725,49169419.879968725,49169419.879968725,49169419.879968725,49169419.879968725,49169419.879968725,49169419.879968725,0.0846548974348518,0.08423320429694471,6156719.813443768,6125092.828100735,6172760.092684851,6170047.888929774,2171719.6602216032,2171719.6602216032,403096470.525404,169267625.5559129,233828844.96949106,233828844.96949106,233828844.96949106,285054018.89675695,285054018.89675695,233828844.96949106,233828844.96949106,56390914.86662794,53470689.88662122,0.0022560582878030245,-3408904.0728703705,94.85570526123048,2022-02-01,0,0,0,0,1,0,0,0,0,0,0,5.590743032593998,1
93.36893157958984,90.34172744750977,87.26139297485352,91.11619750976563,93.21208584801214,91.03794708032228,87.105232088546,91.11619750976563,82.8265889873127,80.35208716976923,85.09952590851867,3.36560089536448,4.22750499765636,-0.8619041022918799,50.93219697402607,107.18999785995476,-10.578944417331837,58.776167300605294,7.4098486140780295,3.6111916192506626,3.8158024998490276,3.352384118265064,95.86611718010597,93.36893157958984,90.87174597907371,6.52874755859375,5.654904426065216,4.914112580128204,50.0,92.85714285714286,42.85714285714286,0.09499931335448877,-0.002297206442216093,1.036609920572879,1.0033765527841356,0.2102795311091073,0.12197928653624857,0.24116321009918845,0.23712440896842749,1.0,0.5144105031907104,1.7238954012623986,7.986301369863014,52209581.04589948,92890999.18528686,-36127212.62819881,-36909141.18464418,35176218.43792742,55041430.41248541,19854645.372443862,55041430.41248541,49282632.26028642,62691650.343113065,207834496.9827559,207834496.9827559,61832014.99472041,49282632.26028642,49282632.26028642,49282632.26028642,49282632.26028642,49282632.26028642,49282632.26028642,49282632.26028642,0.08484981497643651,0.08442715089187146,6170895.634649929,6139195.8283075495,6186972.846565798,6184254.397973101,2176720.0355100776,2176720.0355100776,404024598.43574435,169657363.54441655,234367234.89132777,234367234.89132777,234367234.89132777,285710354.5638689,285710354.5638689,234367234.89132777,234367234.89132777,56520754.70846313,53593805.922850065,0.0022612528524230905,-3416753.0600112895,94.63780212402344,2022-02-02,0,0,0,0,1,0,0,0,0,0,0,4.926233231105901,1
93.70920104980469,91.03567199707031,88.05184669494629,91.11619750976563,93.3688507907646,91.51875318867633,87.73162719213872,91.11619750976563,78.78692487051839,70.51330584980889,78.90264290419476,3.36560089536448,4.22750499765636,-0.8619041022918799,50.93219697402607,87.36142855637635,-16.578899060471695,58.776167300605294,8.000012313570327,3.534038917378664,3.7723624142206114,2.5310537930426875,95.78534981405619,93.70920104980469,91.63305228555319,6.9394454956054545,5.654904426065216,4.914112580128204,42.85714285714286,85.71428571428572,42.85714285714286,-0.15562932310694105,-0.01009555828971842,1.0274670700889839,0.9958129067197936,0.2102795311091073,0.12197928653624857,0.24116321009918845,0.23712440896842749,1.0,0.5144105031907104,1.7238954012623986,7.986301369863014,52742041.399163485,93838349.71464202,-36495656.65730418,-37285559.72622506,35534963.73564364,55602771.432552636,20057133.33111277,55602771.432552636,49785242.07360827,63331012.26902185,209954100.84601226,209954100.84601226,62462609.9140355,49785242.07360827,49785242.07360827,49785242.07360827,49785242.07360827,49785242.07360827,49785242.07360827,49785242.07360827,0.08571515734371235,0.08528818271186324,6233829.624997263,6201806.527608578,6250070.800648613,6247324.627908949,2198919.354023007,2198919.354023007,408145050.584581,171387617.2242398,236757433.36034125,236757433.36034125,236757433.36034125,288624176.76421404,288624176.76421404,236757433.36034125,236757433.36034125,57097182.64402459,54140383.318469375,0.0022843142803928326,-3451598.87767357,93.68238067626952,2022-02-03,0,0,0,0,1,0,0,0,0,0,0,5.587794972887754,1
94.37967681884766,92.13106384277344,88.84288673400879,91.11619750976563,94.00974279198759,92.20471202608674,88.45161763045252,91.11619750976563,80.51097821850631,66.43804513733846,72.43447938563888,3.36560089536448,4.22750499765636,-0.8619041022918799,50.93219697402607,120.82212006874,-13.737874468744655,58.776167300605294,12.98817772162668,3.56596182935237,3.742160451521566,3.9809596850105464,95.79698980135517,94.37967681884766,92.96236383634015,10.95391845703125,5.654904426065216,4.914112580128204,35.714285714285715,100.0,64.28571428571429,0.10833320970883624,0.017176614284863945,1.0318781410111808,1.0034418797815856,0.2102795311091073,0.12197928653624857,0.24116321009918845,0.23712440896842749,1.0,0.5144105031907104,1.7238954012623986,7.986301369863014,51851409.734035514,92253742.75893669,-35879370.548607044,-36655934.87168307,34934900.42594702,54663831.877067596,19718437.338646576,54663831.877067596,48944540.57873743,62261569.30824382,206408698.251112,206408698.251112,61407831.282033995,48944540.57873743,48944540.57873743,48944540.57873743,48944540.57873743,48944540.57873743,48944540.57873743,48944540.57873743,0.08426772316622246,0.08384795866726245,6128561.684816179,6097079.347394178,6144528.6028747205,6141828.803546759,2161787.169644063,2161787.169644063,401252884.5558757,168493469.88254893,232759414.6733268,232759414.6733268,232759414.6733268,283750307.18449426,283750307.18449426,232759414.6733268,232759414.6733268,56133007.62342764,53226138.46812955,0.0022457400694360654,-3393313.244917895,95.2915267944336,2022-02-04,0,0,0,0,1,0,0,0,0,0,0,7.776357358348672,1
94.91773071289063,93.16862640380859,89.56559181213379,91.11619750976563,94.71357476415709,92.9168077865248,89.18205773312333,91.11619750976563,81.35253495284958,66.92298546985573,67.95811215233438,3.36560089536448,4.22750499765636,-0.8619041022918799,50.93219697402607,98.94528551039066,-8.932067520027461,58.776167300605294,12.100473989818706,3.6033864452106776,3.7487931841354607,4.089906451368677,96.51684343951436,94.91773071289063,93.3186179862669,10.375625610351562,5.654904426065216,4.914112580128204,28.571428571428573,92.85714285714286,64.28571428571429,0.27664075068280836,0.008707090147189955,1.043802146064175,1.0119111182912954,0.2102795311091073,0.12197928653624857,0.24116321009918845,0.23712440896842749,1.0,0.5144105031907104,1.7238954012623986,7.986301369863014,51403831.93546244,91457414.8036127,-35569662.29252096,-36339523.36583087,34633344.77092784,54191977.44420641,19548229.145260863,54191977.44420641,48522054.67455916,61724131.72902219,204626992.58016813,204626992.58016813,60877763.11067012,48522054.67455916,48522054.67455916,48522054.67455916,48522054.67455916,48522054.67455916,48522054.67455916,48522054.67455916,0.08354032998214195,0.0831241888614339,6075660.362337597,6044449.778284493,6091489.455058865,6088812.960212807,2143126.771646481,2143126.771646481,397789297.2848294,167039045.8522131,230750251.43261626,230750251.43261626,230750251.43261626,281300994.0706272,281300994.0706272,230750251.43261626,230750251.43261626,55648471.36668459,52766694.10578132,0.002226354995788092,-3364022.398635807,96.1212387084961,2022-02-07,0,0,0,0,1,0,0,0,0,0,0,10.39397949154376,1
94.641162109375,93.55331268310547,90.16003723144532,91.11619750976563,94.30000392398884,93.01790859691162,89.59070578174514,91.11619750976563,70.83785964725807,57.97910878526167,63.78004646415198,3.36560089536448,4.22750499765636,-0.8619041022918799,50.93219697402607,48.310948626004475,-24.27183280705025,58.776167300605294,4.292128195552758,3.652504852375618,3.9075564444092508,4.291044145519848,96.62061630991647,94.641162109375,92.66170790883353,3.84686279296875,5.6162192334109475,4.922763922275635,21.42857142857143,85.71428571428572,64.28571428571429,-0.4628718620817339,-0.027552458753422826,1.0368714148651963,0.9835096761779559,0.2102795311091073,0.12197928653624857,0.24116321009918845,0.23712440896842749,1.0,0.5144105031907104,1.7238954012623986,7.986301369863014,52860262.12742339,94048687.38356183,-36577461.28590581,-37369134.91420561,35614614.981216855,55727404.456941605,20102091.183450427,55727404.456941605,49896835.16743629,63472968.063550495,210424710.743633,210424710.743633,62602619.19386533,49896835.16743629,49896835.16743629,49896835.16743629,49896835.16743629,49896835.16743629,49896835.16743629,49896835.16743629,0.08590728696280304,0.08547935527183018,6247802.688203858,6215707.811380893,6264080.268278746,6261327.940021915,2203848.2085102648,2203848.2085102648,409059903.40096354,171771780.7565088,237288122.64445475,237288122.64445475,237288122.64445475,289271124.80538374,289271124.80538374,237288122.64445475,237288122.64445475,57225165.37534664,54261738.415359534,0.0022894345467048384,-3459335.6000710106,93.47286224365234,2022-02-08,0,0,0,0,1,0,0,0,0,0,0,12.293502725137584,1
94.70653381347657,94.0377326965332,90.65685386657715,91.11619750976563,94.52155616416964,93.37186351466065,90.10251100677239,91.11619750976563,72.95806370892399,53.21674302463421,59.37294575991723,3.36560089536448,4.22750499765636,-0.8619041022918799,50.93219697402607,65.95281575749988,-15.631128727093003,58.776167300605294,5.375250089546713,3.578387046027388,3.7681249232510767,2.6148555635003987,96.70274449961303,94.70653381347657,92.7103231273401,4.8442001342773295,5.606616498219831,4.955580051128678,14.285714285714286,78.57142857142857,64.28571428571429,0.5929491568527617,0.015959695306968058,1.0280777091438964,1.0165978690948938,0.2102795311091073,0.12197928653624857,0.24116321009918845,0.23712440896842749,1.0,0.5144105031907104,1.7238954012623986,7.986301369863014,52029881.07855192,92571277.99262294,-36002866.506288,-36782103.74567534,35055145.53946556,54851983.51308985,19786307.740659595,54851983.51308985,49113006.54733174,62475872.17952814,207119152.18256178,207119152.18256178,61619195.60691845,49113006.54733174,49113006.54733174,49113006.54733174,49113006.54733174,49113006.54733174,49113006.54733174,49113006.54733174,0.08455777070649097,0.08413656138790324,6149656.051381162,6118065.352487081,6165677.927199739,6162968.835225378,2169227.9907269166,2169227.9907269166,402633987.638031,169073420.48112318,233560567.15690783,233560567.15690783,233560567.15690783,284726969.13235486,284726969.13235486,233560567.15690783,233560567.15690783,56326216.128146976,53409341.59692681,0.0022534698544444667,-3404992.9500655895,94.96466064453124,2022-02-09,0,0,0,0,1,0,0,0,0,0,0,18.410377652562744,1
94.85403747558594,94.28161926269532,91.10271987915038,91.11619750976563,94.48767043838522,93.56241541868897,90.51369081439563,91.11619750976563,70.93005578932143,43.118709177771656,51.438186995889204,3.36560089536448,4.22750499765636,-0.8619041022918799,50.4607390438264,69.42000933673556,-18.78646410997557,58.776167300605294,2.6514875659186865,3.53889704912551,3.748041553846225,3.025527089401095,96.62164707117952,94.85403747558594,93.08642787999236,2.4388656616210795,5.366690162687305,4.774662555792389,7.142857142857143,71.42857142857143,64.28571428571429,0.07202274024135023,-0.005736467165969872,1.0322753746946791,1.0023131862339931,0.2102795311091073,0.12197928653624857,0.24116321009918845,0.23712440896842749,1.0,0.5144105031907104,1.7238954012623986,7.986301369863014,52330070.81155529,93105373.9130505,-36210587.35169146,-36994320.45026566,35257398.448020145,55168455.5469321,19900466.11109338,55168455.5469321,49396367.18581135,62836330.72757691,208314139.403457,208314139.403457,61974711.50458495,49396367.18581135,49396367.18581135,49396367.18581135,49396367.18581135,49396367.18581135,49396367.18581135,49396367.18581135,0.08504563218311859,0.08462199267037579,6185136.886044988,6153363.922589278,6201251.201102797,6198526.478848689,2181743.4906254583,2181743.4906254583,404957010.2308496,170048900.41496292,234908109.81588674,234908109.81588674,234908109.81588674,286369719.6263192,286369719.6263192,234908109.81588674,234908109.81588674,56651193.841531925,53717490.215787984,0.0022664713931740198,-3424638.2750859438,94.4198989868164,2022-02-10,0,0,0,0,1,0,0,0,0,0,0,6.231239099193951,1
95.36527404785156,94.8724754333496,91.7208152770996,91.11619750976563,95.60768351084405,94.34155982542947,91.21216879928764,91.11619750976563,75.53778638007064,65.40640915960039,53.91395378733544,3.36560089536448,4.22750499765636,-0.8619041022918799,50.270213586720494,129.21486937950488,-0.798627979558094,59.23983864916617,6.42660046165151,3.5393432312878015,3.617195786942356,3.5451435993975906,98.38115423873309,95.36527404785156,92.34939385697002,5.9085617065429545,5.182219140147012,4.650353700686722,0.0,100.0,100.0,0.8031901402306315,0.03630390103916481,1.0332361197517563,1.026554089105127,0.2102795311091073,0.12197928653624857,0.24116321009918845,0.23712440896842749,1.0,0.5144105031907104,1.7238954012623986,7.986301369863014,50496838.58092279,89843697.22017653,-34942054.46431391,-35698331.747250214,34022257.76885083,53235788.74074617,19203311.008612413,53235788.74074617,47665908.75155311,60635042.15758246,201016457.81181347,201016457.81181347,59803607.26466354,47665908.75155311,47665908.75155311,47665908.75155311,47665908.75155311,47665908.75155311,47665908.75155311,47665908.75155311,0.08206630516187209,0.08165750663055518,5968458.557227061,5937798.667378292,5984008.354001588,5981379.084487718,2105312.4362821486,2105312.4362821486,390770516.08584577,164091730.4706125,226678785.61523327,226678785.61523327,226678785.61523327,276337587.2069564,276337587.2069564,226678785.61523327,226678785.61523327,54666583.600355394,51835653.770985715,0.0021870721425455326,-3304666.0073863002,97.84770965576172,2022-02-11,0,0,0,0,1,0,0,0,0,0,0,3.9177643518430076,1
95.15072326660156,95.03422698974609,92.04683456420898,91.11619750976563,95.4212839413114,94.47009163939613,91.57753222814083,91.11619750976563,66.29637496378699,64.98098794149531,57.835368759622476,3.36560089536448,4.22750499765636,-0.8619041022918799,49.744351567652245,74.83994114836774,-32.16247234832986,53.99130758636112,1.7312413401595395,3.546940409901868,3.731716941392053,3.645703731884737,98.07211051604381,95.15072326660156,92.22933601715931,1.617515563964858,4.767574767164317,4.306830088297531,0.0,92.85714285714286,92.85714285714286,-0.6419756574944263,-0.028607975223575388,1.0360319872542958,0.9775881525192293,0.2102795311091073,0.12197928653624857,0.24116321009918845,0.23712440896842749,1.0,0.5144105031907104,1.7238954012623986,7.986301369863014,51983995.434330575,92489638.50702289,-35971115.237801306,-36749665.260497205,35024230.07506304,54803609.03004006,19768858.008724377,54803609.03004006,49069693.32234726,62420774.11695675,206936491.84332082,206936491.84332082,61564853.05551888,49069693.32234726,49069693.32234726,49069693.32234726,49069693.32234726,49069693.32234726,49069693.32234726,49069693.32234726,0.08448319840875824,0.08406236055865236,6144232.6115460545,6112669.772788113,6160240.357520812,6157533.654720287,2167314.928045355,2167314.928045355,402278900.91622424,168924313.0325059,233354587.8837183,233354587.8837183,233354587.8837183,284475865.7253318,284475865.7253318,233354587.8837183,233354587.8837183,56276541.50541069,53362239.39342738,0.0022514824980665337,-3401990.0545785325,95.0484848022461,2022-02-14,0,0,0,0,1,0,0,0,0,0,0,8.5261628992001,1
95.04512176513671,94.84314193725587,92.26599731445313,91.11619750976563,94.59580753965031,94.19277583883832,91.70775341939675,91.11619750976563,60.32358225863216,59.914287479772206,63.433894860289335,3.36560089536448,4.22750499765636,-0.8619041022918799,47.600405704842956,-88.52935390986224,-63.25241463572169,55.17580063611287,-2.014481384793798,3.5917109782068217,3.864346217330713,4.173728366171218,98.22795186446142,95.04512176513671,91.86229166581201,-1.910850524902358,4.359256218446374,3.9568806183643943,0.0,85.71428571428572,85.71428571428572,0.45289820018299815,-0.022132178858976004,1.0254542297192886,1.0113999086420897,0.2102795311091073,0.12197928653624857,0.24116321009918845,0.23712440896842749,1.0,0.5144105031907104,1.7238954012623986,7.986301369863014,53160554.33102718,94582965.61911757,-36785253.037397675,-37581424.05955838,35816936.9293644,56043984.51939295,20216288.52216152,56043984.51939295,50180292.53185808,63833549.655127354,211620105.87674025,211620105.87674025,62958256.44787247,50180292.53185808,50180292.53185808,50180292.53185808,50180292.53185808,50180292.53185808,50180292.53185808,50180292.53185808,0.08639531497230281,0.08596495225762137,6283295.634349296,6251018.430748187,6299665.685217806,6296897.72134579,2216367.980609512,2216367.980609512,411383718.9640063,172747593.6731375,238636125.29086882,238636125.29086882,238636125.29086882,290914436.056799,290914436.056799,238636125.29086882,238636125.29086882,57550254.02077805,54569992.22160895,0.0023024405235458037,-3478987.6310777096,92.94485473632812,2022-02-15,0,0,0,0,1,0,0,0,0,0,0,10.2687402913761,1
94.7869857788086,94.74675979614258,92.54424362182617,91.11619750976563,94.28853193073041,94.09844945230238,91.89501316163427,91.11619750976563,61.61442574405511,40.37837837982014,55.09121793369592,3.36560089536448,4.22750499765636,-0.8619041022918799,46.30166669063895,-7.539983770847945,-54.065710876766694,51.29424453530254,-1.0184317360516504,3.5404937183032845,3.779591399189969,2.8746693395573004,98.15784823906858,94.7869857788086,91.41612331854861,-0.9638214111328125,3.8495586703632045,3.512130541679184,7.142857142857143,78.57142857142857,71.42857142857143,-0.0903805132380004,0.007844715865455099,1.0309343469529175,0.9972340722437213,0.2102795311091073,0.12197928653624857,0.24116321009918845,0.23712440896842749,1.0,0.5144105031907104,1.7238954012623986,7.986301369863014,52746770.90049256,93846764.41737099,-36498929.30758633,-37288903.20894971,35538150.2383606,55607757.46218695,20058931.900834955,55607757.46218695,49789706.43187559,63336691.30795837,209972927.9177875,209972927.9177875,62468211.08131626,49789706.43187559,49789706.43187559,49789706.43187559,49789706.43187559,49789706.43187559,49789706.43187559,49789706.43187559,0.08572284362091787,0.085295830701262,6234388.626975846,6202362.658001655,6250631.259011132,6247884.840015781,2199116.536227781,2199116.536227781,408181649.89905554,171402985.94987017,236778663.94918537,236778663.94918537,236778663.94918537,288650058.36438334,288650058.36438334,236778663.94918537,236778663.94918537,57102302.68098253,54145238.21236556,0.002284519120158957,-3451908.390560184,93.67398071289062,2022-02-16,0,0,0,0,1,0,0,0,0,0,0,12.833192539914364,1
94.77693328857421,94.81548538208008,92.92557868957519,91.11619750976563,94.31556679903511,94.14775619472822,92.13069157820667,91.11619750976563,62.85609306863239,39.32235596478488,46.53834060812577,3.36560089536448,4.22750499765636,-0.8619041022918799,45.095694748878095,-6.255709842244636,-46.579606979396125,52.003605029252064,0.7336020438569957,3.4624041325010504,3.6689811041004274,2.4472395170720063,98.15241127814792,94.77693328857421,91.4014552990005,0.687255859375,3.397981085551468,3.1123437147874142,0.0,71.42857142857143,71.42857142857143,0.373286651164001,0.007426350598743747,1.0262731526451427,1.0097748750516475,0.2102795311091073,0.12197928653624857,0.24116321009918845,0.23712440896842749,1.0,0.5144105031907104,1.7238954012623986,7.986301369863014,52357942.46313248,93154963.00210436,-36229873.56434931,-37014024.08899448,35276176.98032139,55197838.95779338,19911065.34876056,55197838.95779338,49422676.310068786,62869798.14486237,208425090.1249449,208425090.1249449,62007720.01267341,49422676.310068786,49422676.310068786,49422676.310068786,49422676.310068786,49422676.310068786,49422676.310068786,49422676.310068786,0.08509092855271276,0.08466706340425592,6188431.167470019,6156641.281335755,6204554.065213991,6201827.891738662,2182905.514552781,2182905.514552781,405172695.4099035,170139470.59057984,235033224.8193237,235033224.8193237,235033224.8193237,286522243.7281196,286522243.7281196,235033224.8193237,235033224.8193237,56681366.97739235,53746100.82432866,0.002267678544244151,-3426462.280352912,94.36963653564452,2022-02-17,0,0,0,0,1,0,0,0,0,0,0,13.875947038523151,1
93.91705017089843,94.641162109375,93.38611297607422,91.11619750976563,94.05980922181767,94.03876308066542,92.26570133908058,91.11619750976563,60.372991721496064,42.848836575677275,40.84985697342746,3.0976322319603895,4.001530444517166,-0.9038982125567765,43.69826267426623,-69.30414415086103,-62.29295158622809,50.14367816462189,-1.8293680306029292,3.353375726196457,3.584646582417657,1.9360064442367388,95.36624485233096,93.91705017089843,92.4678554894659,-1.7432327270507955,2.9510355107851183,2.7121007870405123,0.0,64.28571428571429,64.28571428571429,0.4545457547964403,-0.008703461181091776,1.0209144884727408,1.0094962743479772,0.2102795311091073,0.12197928653624857,0.24116321009918845,0.23712440896842749,1.0,0.5144105031907104,1.7238954012623986,7.986301369863014,52817638.73150909,93972852.07219115,-36547967.379686214,-37339002.649091534,35585897.4574365,55682469.16665267,20085882.043413397,55682469.16665267,49856601.30414054,63421787.20786145,210255036.6747728,210255036.6747728,62552140.13614254,49856601.30414054,49856601.30414054,49856601.30414054,49856601.30414054,49856601.30414054,49856601.30414054,49856601.30414054,0.08583801639627969,0.08541042976416872,6242764.828820342,6210695.831412018,6259029.283615253,6256279.174673505,2202071.155371559,2202071.155371559,408730061.634888,171633274.1293483,237096787.50553972,237096787.50553972,237096787.50553972,289037873.6412213,289037873.6412213,237096787.50553972,237096787.50553972,57179022.37904111,54217984.95167256,0.0022875884817937556,-3456546.1959903645,93.5482940673828,2022-02-18,0,0,0,0,1,0,0,0,0,0,0,15.839417522824611,1
93.26668090820313,94.20870208740234,93.68866424560547,91.11619750976563,93.30541897746829,93.63110406395707,92.22102868667,91.11619750976563,55.35093996996746,35.374547288744616,39.18191327640229,2.7126514126864976,3.7437546381510325,-1.031103225464535,43.277230259935685,-66.43132987207478,-82.94315974265913,44.45165842458499,-4.499109955128288,3.6508289517884758,3.9770834879047574,7.517720884484717,94.99325138594655,93.26668090820313,91.5401104304597,-4.324600219726577,2.5093102190252505,2.31223111274916,100.0,100.0,0.0,-0.8182834970349986,-0.018724612736941704,1.0830555668583621,0.937195141654946,0.2102795311091073,0.12197928653624857,0.24116321009918845,0.23712440896842749,1.0,0.5144105031907104,1.7238954012623986,7.986301369863014,53825500.38152526,95766033.97166334,-37245372.55706029,-38051502.293598,36264944.49910901,56744997.2652024,20469159.12100505,56744997.2652024,50807960.69205299,64631996.30916603,214267105.24270803,214267105.24270803,63745754.7066486,50807960.69205299,50807960.69205299,50807960.69205299,50807960.69205299,50807960.69205299,50807960.69205299,50807960.69205299,0.08747597005943085,0.08704022425589696,6361888.731594971,6329207.796329929,6378463.543320633,6375660.9570360435,2244090.8881995957,2244090.8881995957,416529413.59805703,174908365.53850833,241621048.05954874,241621048.05954874,241621048.05954874,294553269.5438295,294553269.5438295,241621048.05954874,241621048.05954874,58270107.577571064,55252567.88809879,0.0023312400489063764,-3522503.7138975346,91.79663848876952,2022-02-22,0,0,0,0,1,0,0,0,0,0,0,13.565784619292156,1
93.17113647460937,94.10812911987304,93.83072090148926,91.11619750976563,93.02599017443198,93.4194728829393,92.2444671515928,91.11619750976563,56.8312044965013,27.602742993296573,35.27537561923952,2.4336015644741167,3.4817240234156492,-1.0481224589415326,42.886271589485894,-120.10864696177539,-74.02431199754476,39.76945781038927,-1.0759590015242848,3.5498926812268934,3.8390859353214166,2.2377211639263237,95.00773524127895,93.17113647460937,91.33453770793979,-1.0057296752929688,2.0860390049258517,1.9253636384621586,92.85714285714286,92.85714285714286,0.0,-0.011235473464338928,0.007304124536890111,1.0245224638656578,0.9997281734402775,0.2102795311091073,0.12197928653624857,0.24116321009918845,0.23712440896842749,1.0,0.5144105031907104,1.7238954012623986,7.986301369863014,53435203.0041291,95071619.02637094,-36975300.35845322,-37775584.71836124,36001981.54234887,56333530.145417616,20320733.94955648,56333530.145417616,50439543.98123013,64163339.28830154,212713419.93285066,212713419.93285066,63283523.96646427,50439543.98123013,50439543.98123013,50439543.98123013,50439543.98123013,50439543.98123013,50439543.98123013,50439543.98123013,0.08684166770353301,0.0864090815630422,6315757.651166038,6283313.690629225,6332212.276260799,6329430.011981005,2227818.623527746,2227818.623527746,413509091.6951791,173640076.79301694,239869014.90216216,239869014.90216216,239869014.90216216,292417416.31828505,292417416.31828505,239869014.90216216,239869014.90216216,57847581.637135506,54851922.61423654,0.002314335851625911,-3496961.4718067516,92.46713256835938,2022-02-23,0,0,0,0,1,0,0,0,0,0,0,11.93291799272798,1
92.89121551513672,93.83910064697265,93.93841667175293,91.11619750976563,92.77545208813044,93.21127343431894,92.24731560530086,91.11619750976563,56.25380285999512,26.275673432012667,29.75098790468465,2.171862815768705,3.21975178188626,-1.0478889661175552,41.48048642450733,-122.81140470174773,-64.20550796375811,43.37577375540359,-2.8329324937769074,3.710588179488273,4.0212552430429165,5.799629656886211,94.76224031277918,92.89121551513672,91.02019071749426,-2.690284729003892,1.581551892436734,1.4619926550449378,100.0,85.71428571428572,-14.285714285714286,-0.41907501386409796,-0.002084596412563422,1.065117211037301,0.9743362696824875,0.2102795311091073,0.12197928653624857,0.24116321009918845,0.23712440896842749,1.0,0.5144105031907104,1.7238954012623986,7.986301369863014,53546826.52661062,95270218.98308723,-37052539.95031,-37854496.06505787,36077187.9188599,56451208.13137315,20363182.96771936,56451208.13137315,50544909.71870308,64297373.36214953,213157767.85102293,213157767.85102293,63415720.1491874,50544909.71870308,50544909.71870308,50544909.71870308,50544909.71870308,50544909.71870308,50544909.71870308,50544909.71870308,0.0870230756949369,0.08658958590318132,6328950.9596317755,6296439.225250105,6345439.957632617,6342651.881338983,2232472.4275413454,2232472.4275413454,414372891.93917906,174002802.41069826,240370089.5284808,240370089.5284808,240370089.5284808,293028261.9819924,293028261.9819924,240370089.5284808,240370089.5284808,57968422.40251775,54966505.594610214,0.0023191703858924657,-3504266.4530835156,92.27437591552734,2022-02-24,0,0,0,0,1,0,0,0,0,0,0,12.489314434630963,1
91.99948272705078,93.3882080078125,93.83491363525391,91.11619750976563,91.8206255904919,92.61121873630002,92.02480674719743,91.11619750976563,49.599783245167565,24.876655582311653,26.251690669206994,1.7535126729601274,2.9265039601010336,-1.1729912871409063,40.01647590283727,-154.64564840684153,-87.14021329176218,39.71094958561522,-4.775398448828172,3.828676006040127,4.258296730118892,5.363817751214228,94.38210305985707,91.99948272705078,89.61686239424448,-4.5089263916015625,1.1845937284973314,1.0958639780680386,100.0,78.57142857142857,-21.42857142857143,-0.6187497094274234,-0.025612780328919005,1.0604629345124048,0.9644013020449508,0.2102795311091073,0.12197928653624857,0.24116321009918845,0.23712440896842749,1.0,0.5144105031907104,1.7238954012623986,7.986301369863014,54954360.489956096,97774495.66225542,-38026504.45560815,-38849540.81995884,37025514.28274921,57935086.7824694,20898450.386688426,57935086.7824694,51873535.1801569,65987496.61746803,218760841.22180662,218760841.22180662,65082668.233881734,51873535.1801569,51873535.1801569,51873535.1801569,51873535.1801569,51873535.1801569,51873535.1801569,51873535.1801569,0.08931056764508144,0.08886568312381081,6495314.010551378,6461947.67145608,6512236.438994567,6509375.075219111,2291155.284543808,2291155.284543808,425265113.88260704,178576646.83803585,246688467.0445712,246688467.0445712,246688467.0445712,300730814.2659225,300730814.2659225,246688467.0445712,246688467.0445712,59492182.60691665,56411357.29711745,0.0023801321887979366,-3596379.7372736824,89.91097259521484,2022-02-25,0,0,0,0,1,0,0,0,0,0,0,21.14050025918956,1
92.55262451171875,93.23483734130859,94.0536563873291,91.11619750976563,93.31841805723549,93.28445223710413,92.43330162753317,91.11619750976563,62.53094037461992,43.40640361906293,31.519577544462447,1.9165454681453582,2.7245122617098985,-0.8079667935645403,39.30382005785605,32.05532266495897,-18.435067887290916,49.364463039108784,-1.5674425803473557,4.020341075721609,4.1742020380036156,6.5119869815808755,96.72707431315014,92.55262451171875,88.37817471028735,-1.5337066650390625,0.9046199572312462,0.8401911808894198,92.85714285714286,71.42857142857143,-21.42857142857143,0.8155328402272969,0.0712152278046716,1.066858373133437,1.0539251394355102,0.2102795311091073,0.12197928653624857,0.24116321009918845,0.23712440896842749,1.0,0.5144105031907104,1.7238954012623986,7.986301369863014,51300951.5394759,91274370.56942575,-35498472.63984378,-36266792.90171814,34564029.07810469,54083516.812210076,19509105.027863838,54083516.812210076,48424941.91056782,61600596.13108896,204217449.06495678,204217449.06495678,60755921.447514266,48424941.91056782,48424941.91056782,48424941.91056782,48424941.91056782,48424941.91056782,48424941.91056782,48424941.91056782,0.08337313111960969,0.08295782286994788,6063500.445062523,6032352.326337887,6079297.857201509,6076626.719132159,2138837.485758356,2138837.485758356,396993155.8517305,166704731.4142532,230288424.43747732,230288424.43747732,230288424.43747732,280737994.0651465,280737994.0651465,230288424.43747732,230288424.43747732,55537095.68602643,52661086.05711835,0.002221899135690719,-3357289.5940286764,96.31400299072266,2022-02-28,0,0,0,0,1,0,0,0,0,0,0,14.128946855407715,1
93.70585174560547,93.4862663269043,94.2602466583252,91.11619750976563,94.73320359089136,94.06232904094031,92.92182286854936,91.11619750976563,64.44680900841928,61.845914336883034,43.37632451275257,2.1220538541647613,2.604020580200871,-0.4819667260361098,39.1183147509716,154.65414460837292,-8.886975810297763,50.63984222187715,2.6452708438100325,3.916358037072569,4.014192965291275,2.5645785346350465,99.33882348630324,93.70585174560547,88.0728800049077,2.5142898559570312,0.6354638516611129,0.5934372437306052,85.71428571428572,100.0,14.285714285714286,0.13398789770645048,0.012965629386214594,1.026752974833603,1.0035345143285292,0.2102795311091073,0.12197928653624857,0.24116321009918845,0.23712440896842749,1.0,0.5144105031907104,1.7238954012623986,7.986301369863014,50644316.10632302,90106088.42151096,-35044103.77808508,-35802589.791415974,34121620.78889888,53391265.45189974,19259394.852009907,53391265.45189974,47805118.46182768,60812128.60935327,201603532.38115108,201603532.38115108,59978265.485994875,47805118.46182768,47805118.46182768,47805118.46182768,47805118.46182768,47805118.46182768,47805118.46182768,47805118.46182768,0.082305982257392,0.08189598981775369,5985889.618719418,5955140.185746544,6001484.829139892,5998847.88076587,2111461.064137329,2111461.064137329,391911773.05026656,164570965.27082017,227340807.7794464,227340807.7794464,227340807.7794464,277144639.3845109,277144639.3845109,227340807.7794464,227340807.7794464,54826238.990633845,51987041.34613851,0.0021934595520649923,-3314317.3831702033,97.56277465820312,2022-03-01,0,0,0,0,1,0,0,0,0,0,0,15.998024046141682,1
94.78029174804688,93.97571411132813,94.409428024292,91.11619750976563,95.76857992078304,94.74905695723596,93.3901571268367,91.11619750976563,64.87515538346202,85.26922995515199,63.50718263703268,2.2809433486515047,2.5394051338909978,-0.25846178523949304,39.221360801186385,158.7786164092972,-16.870266436955344,49.195442993268244,5.266001929986608,3.8204006527831305,3.904769740367145,2.572954657020432,101.06946309620078,94.78029174804688,88.49112039989298,4.894477844238281,0.13595514905559258,0.12759609711476116,78.57142857142857,100.0,21.42857142857143,-0.41042418940782305,0.00283466643227559,1.0264929217085708,0.989322015794657,0.2102795311091073,0.12197928653624857,0.24116321009918845,0.23712440896842749,1.0,0.5144105031907104,1.7238954012623986,7.986301369863014,50501162.1571652,89851389.70322591,-34945046.22856665,-35701388.264516905,34025170.77943795,53240346.82790397,19204955.21014236,53240346.82790397,47669989.94151355,60640233.77422811,201033668.98791382,201033668.98791382,59808727.69324572,47669989.94151355,47669989.94151355,47669989.94151355,47669989.94151355,47669989.94151355,47669989.94151355,47669989.94151355,0.08207333173892663,0.08166449820598055,5968969.581012847,5938307.06604189,5984520.709172343,5981891.214538494,2105492.6946723396,2105492.6946723396,390803974.143163,164105780.12455866,226698194.01860434,226698194.01860434,226698194.01860434,276361247.43323004,276361247.43323004,226698194.01860434,226698194.01860434,54671264.193215266,51840091.97756363,0.0021872594012615565,-3304948.9553062124,97.8393325805664,2022-03-02,0,0,0,0,1,0,0,0,0,0,0,16.235164434302362,1
95.81785430908204,94.35453491210937,94.55064735412597,91.11619750976563,96.33311618742307,95.24235364150272,93.77796965958588,91.11619750976563,63.74722214274308,84.64578733824614,77.2536438767604,2.3493502133611344,2.501394149785025,-0.1520439364238908,38.78830571311257,105.93992414573782,-20.305395738008485,54.7696698008681,4.0440344041994924,3.7438687470810152,3.8413550898285282,2.7489539729535153,101.81601217162678,95.81785430908204,89.8196964465373,3.7882080078125,0.029044421937871334,0.027346195318756372,71.42857142857143,92.85714285714286,21.42857142857143,0.20731724336847185,-0.0038547264164207062,1.028621281177744,1.0058818467397783,0.2102795311091073,0.12197928653624857,0.24116321009918845,0.23712440896842749,1.0,0.5144105031907104,1.7238954012623986,7.986301369863014,50696583.61725692,90199082.48923407,-35080271.07617919,-35839539.88566655,34156836.037613496,53446367.954319224,19279271.52738833,53446367.954319224,47854455.77633804,60874889.82011441,201811597.48387498,201811597.48387498,60040166.10758692,47854455.77633804,47854455.77633804,47854455.77633804,47854455.77633804,47854455.77633804,47854455.77633804,47854455.77633804,0.0823909262186952,0.08198051064599934,5992067.361359652,5961286.193407462,6007678.666830743,6005038.996991835,2113640.199383713,2113640.199383713,392316245.93997884,164740810.88012084,227575435.05985802,227575435.05985802,227575435.05985802,277430666.7530884,277430666.7530884,227575435.05985802,227575435.05985802,54882822.458754756,52040694.61783588,0.002195723313922886,-3317737.927337481,97.46218872070312,2022-03-03,0,0,0,0,1,0,0,0,0,0,0,19.416216475176764,1
97.74044036865234,94.86996154785156,94.84272346496581,91.11619750976563,97.39671175597086,96.02081714178702,94.32520139610783,91.11619750976563,67.11335078155373,82.93251525077532,84.28251084805784,2.5406393409049315,2.5092431880090063,0.03139615289592523,38.88786524514843,149.98924963080884,-12.125363270133077,53.974870500133534,5.4617846869369435,3.7302726989082573,3.7481173773060874,3.5535240726623982,99.80620529680483,97.74044036865234,95.67467544049985,5.154266357421889,0.22634511642792304,0.2139293475028694,64.28571428571429,100.0,35.714285714285715,0.4905211128065255,0.02115399006964158,1.0362823601520341,1.0177408269575774,0.2102795311091073,0.12197928653624857,0.24116321009918845,0.23712440896842749,1.0,0.5144105031907104,1.7238954012623986,7.986301369863014,49646364.90702002,88330539.14139101,-34353556.28761414,-35097096.259911135,33449250.915901568,52339185.34723078,18879886.593865737,52339185.34723078,46863113.929638,59613819.67078522,197630915.06905013,197630915.06905013,58796387.901781835,46863113.929638,46863113.929638,46863113.929638,46863113.929638,46863113.929638,46863113.929638,46863113.929638,0.08068413483168806,0.08028222133314915,5867937.078668223,5837793.566277804,5883224.983942946,5880639.996894394,2069854.5174754348,2069854.5174754348,384189113.25335306,161328078.31352225,222861034.9398308,222861034.9398308,222861034.9398308,271683477.17484605,271683477.17484605,222861034.9398308,222861034.9398308,53745882.592117,50962631.61473498,0.0021502372171832186,-3249008.4351638434,99.5239028930664,2022-03-04,0,0,0,0,1,0,0,0,0,0,0,17.03640922890558,1
98.6170883178711,95.58485641479493,95.11300926208496,91.11619750976563,98.49688874958603,96.87107634088328,94.93206247617532,91.11619750976563,68.8840798348752,81.21359801641997,82.93063353514718,2.755156344710997,2.5584258193494045,0.19673052536159252,39.19682452025357,137.8133375581442,-10.232270230317322,55.958399046796025,7.641987211743517,3.7775119030896334,3.751355846914882,4.391621557447522,101.17828014041928,98.6170883178711,96.05589649532291,7.148948669433608,0.4891542317000862,0.4639623593061373,57.142857142857146,100.0,42.85714285714286,0.024810102254314556,0.011789528039416686,1.0449630841136488,1.0010831935214857,0.2102795311091073,0.12197928653624857,0.24116321009918845,0.23712440896842749,1.0,0.5144105031907104,1.7238954012623986,7.986301369863014,49067877.78602698,87301298.0402678,-33953263.33746736,-34688139.46702939,33059495.07178381,51729321.06606244,18659895.235771038,51729321.06606244,46317057.67942315,58919190.22556123,195328089.0858864,195328089.0858864,58111283.297934346,46317057.67942315,46317057.67942315,46317057.67942315,46317057.67942315,46317057.67942315,46317057.67942315,46317057.67942315,0.07974399081598797,0.07934676047568419,5799562.96843549,5769770.692912704,5814672.736673897,5812117.870294166,2045736.2525645734,2045736.2525645734,379712482.29640305,159448258.59794557,220264223.69845745,220264223.69845745,220264223.69845745,268517779.28686166,268517779.28686166,220264223.69845745,220264223.69845745,53119627.25712574,50368807.15052193,0.0021251823206253333,-3211150.486464879,100.6972427368164,2022-03-07,0,0,0,0,1,0,0,0,0,0,0,18.181057081177403,1
98.8517578125,96.27880477905273,95.24375343322754,91.11619750976563,98.57663321017324,97.21017557551316,95.29435387190601,91.11619750976563,62.79792561657107,71.50857012177795,78.55156112965778,2.735384759852579,2.593817607450039,0.1415671524025397,38.1177789952883,82.4669541585219,-28.168187015752924,58.4404257844531,7.55962718986396,4.0757990544460485,4.127971573588899,7.953532022079443,101.1887425941529,98.8517578125,96.5147730308471,6.939483642578139,0.5955274198022081,0.5664140750200346,50.0,100.0,50.0,-0.44151774337090666,-0.019475415137178653,1.083974848990177,0.9656557176933914,0.2102795311091073,0.12197928653624857,0.24116321009918845,0.23712440896842749,1.0,0.5144105031907104,1.7238954012623986,7.986301369863014,50042475.77626188,89035297.41937223,-34627651.22020631,-35377123.63620376,33716130.71426347,52756781.282847226,19030522.56296217,52756781.282847226,47237018.21908226,60089457.35287629,199207742.57099676,199207742.57099676,59265503.5835377,47237018.21908226,47237018.21908226,47237018.21908226,47237018.21908226,47237018.21908226,47237018.21908226,47237018.21908226,0.08132788514134444,0.08092276491648097,5914755.283006869,5884371.266142108,5930165.165096181,5927559.553345927,2086369.1580469436,2086369.1580469436,387254422.94700456,162615258.26020256,224639164.68680197,224639164.68680197,224639164.68680197,273851144.00209373,273851144.00209373,224639164.68680197,224639164.68680197,54174702.06986942,51369244.51268979,0.0021673932030196403,-3274931.1297626765,98.73612213134766,2022-03-08,0,0,0,0,1,0,0,0,0,0,0,20.10635364057495,1
98.35392913818359,96.56711044311524,95.33761978149414,91.11619750976563,97.50115187644361,96.8719962361443,95.29967152305633,91.11619750976563,53.93716615494127,49.65725026716415,67.45980613512073,2.41861881483365,2.5587778489267614,-0.1401590340931116,36.61179274831403,-2.683567518180508,-52.43262617297749,50.932981917934015,3.117925862461024,4.160618148478603,4.363513258856301,5.2632663709018175,102.02257283602303,98.35392913818359,94.68528544034415,2.883056640625,0.6752690391272427,0.642755850767486,42.85714285714286,92.85714285714286,50.0,-0.12033233771311422,-0.03429274767201218,1.043217069376665,0.994927837002237,0.2102795311091073,0.12197928653624857,0.24116321009918845,0.23712440896842749,1.0,0.5144105031907104,1.7238954012623986,7.986301369863014,51819509.12725021,92196985.37495579,-35857296.43919621,-36633382.99564561,34913407.38405504,54630200.98033725,19706305.940113973,54630200.98033725,48914428.36864905,62223264.046139546,206281709.1730185,206281709.1730185,61370051.26622894,48914428.36864905,48914428.36864905,48914428.36864905,48914428.36864905,48914428.36864905,48914428.36864905,48914428.36864905,0.08421587903092878,0.08379637278419938,6124791.202249367,6093328.233744661,6140748.296961211,6138050.158634121,2160457.1706564547,2160457.1706564547,401006021.2486417,168389807.43718463,232616213.8114571,232616213.8114571,232616213.8114571,283575735.13291204,283575735.13291204,232616213.8114571,232616213.8114571,56098472.843890175,53193392.085289024,0.0022443584200023364,-3391225.5726235304,95.35018920898438,2022-03-09,0,0,0,0,1,0,0,0,0,0,0,27.08284857902309,1
98.95568237304687,97.38676834106445,95.61293449401856,91.11619750976563,98.49108621596892,97.52635235593979,95.79217470133854,91.11619750976563,62.54472300028243,49.03840040685716,56.73474026526645,2.5513718891055674,2.5572966569625226,-0.005924767856955171,36.09430513183297,77.15467497862029,-15.735943079657838,55.40055108683567,8.882833287321002,4.270506425183032,4.25048854133537,5.699054022340604,102.82347197763627,98.95568237304687,95.08789276845746,8.196578979492173,1.205063832050393,1.1496444115271913,35.714285714285715,85.71428571428572,50.0,0.6854093087863213,0.05370482983323366,1.057724378931198,1.0390915697275525,0.2102795311091073,0.12197928653624857,0.24116321009918845,0.23712440896842749,1.0,0.5144105031907104,1.7238954012623986,7.986301369863014,49178391.955792315,87497924.24273835,-34029735.29586195,-34766266.565792866,33133954.021621656,51845829.52797453,18701922.381083537,51845829.52797453,46421376.25618606,59051892.222974256,195768020.92258227,195768020.92258227,58242165.66981264,46421376.25618606,46421376.25618606,46421376.25618606,46421376.25618606,46421376.25618606,46421376.25618606,46421376.25618606,0.07992359591277318,0.07952547090199971,5812625.157292594,5782765.781484584,5827768.956827394,5825208.336195602,2050343.8054833468,2050343.8054833468,380567697.7983556,159807379.324469,220760318.47388655,220760318.47388655,220760318.47388655,269122554.15759325,269122554.15759325,220760318.47388655,220760318.47388655,53239267.06568166,50482251.36607541,0.0021299688076380397,-3218382.868341078,100.47095489501952,2022-03-10,0,0,0,0,1,0,0,0,0,0,0,19.44605366161519,1
98.60871276855468,98.17457656860351,95.78139228820801,91.11619750976563,98.25707576751444,97.57411644951537,95.98235376507824,91.11619750976563,56.58131346822951,47.82727047837432,48.84097371746524,2.412364502167563,2.528310226003531,-0.11594572383596802,35.613780916529116,48.3877174450564,-34.955107032478594,54.35292647480624,8.762092154044755,4.239646706257701,4.335502282814374,3.838470360228399,102.52135393989579,98.60871276855468,94.69607159721357,7.878082275390639,1.5409339433931701,1.4719359079996792,28.571428571428573,78.57142857142857,50.0,-0.28428951403923586,-0.026693286902829905,1.0347787892515137,0.9903242285469257,0.2102795311091073,0.12197928653624857,0.24116321009918845,0.23712440896842749,1.0,0.5144105031907104,1.7238954012623986,7.986301369863014,50527127.054637484,89897586.30587293,-34963013.033759475,-35719743.93884816,34042664.63567865,53267720.062255956,19214829.333265297,53267720.062255956,47694499.207210936,60671411.62015062,201137029.35390908,201137029.35390908,59839478.02484542,47694499.207210936,47694499.207210936,47694499.207210936,47694499.207210936,47694499.207210936,47694499.207210936,47694499.207210936,0.08211552929543392,0.08170648556295355,5972038.494213376,5941360.2142773485,5987597.617900718,5984966.771326524,2106575.2222738964,2106575.2222738964,391004903.877984,164190154.2176198,226814749.66036418,226814749.66036418,226814749.66036418,276503337.0634169,276503337.0634169,226814749.66036418,226814749.66036418,54699373.125937246,51866745.27851069,0.00218838396876997,-3306648.176811425,97.78905487060548,2022-03-11,0,0,0,0,1,0,0,0,0,0,0,26.91382898272635,1
98.0541275024414,98.33560791015626,95.78522262573242,91.11619750976563,98.14615598042629,97.63778916892167,96.16730258804698,91.11619750976563,56.80500718250071,57.159965672718954,51.341878852650176,2.2867543414308784,2.4799990490890003,-0.19324470765812185,34.313395320581506,29.624418529108787,-33.985789158435075,56.06096265356408,1.6719411150240004,4.351635946023694,4.443876767002839,5.807496062981613,101.36526845806932,98.0541275024414,94.74298654681348,1.6103134155273438,1.859856899199839,1.779612907996551,21.42857142857143,71.42857142857143,50.0,-0.3304226149822597,0.001383197085026433,1.0614270651961253,0.9807805921536674,0.2102795311091073,0.12197928653624857,0.24116321009918845,0.23712440896842749,1.0,0.5144105031907104,1.7238954012623986,7.986301369863014,50457334.616477765,89773411.98410363,-34914719.09608126,-35670404.73899147,33995641.96281208,53194142.079990424,19188288.14903091,53194142.079990424,47628619.43963819,60587607.018733576,200859201.49190474,200859201.49190474,59756822.56206713,47628619.43963819,47628619.43963819,47628619.43963819,47628619.43963819,47628619.43963819,47628619.43963819,47628619.43963819,0.08200210422390537,0.08159362549800797,5963789.398102209,5933153.493659903,5979327.03018215,5976699.817560796,2103665.43837167,2103665.43837167,390464814.08533573,163963360.57522103,226501453.51011473,226501453.51011473,226501453.51011473,276121406.7385028,276121406.7385028,226501453.51011473,226501453.51011473,54623817.62063137,51795102.44379179,0.002185361183551152,-3302080.748345791,97.92431640625,2022-03-14,0,0,0,0,1,0,0,0,0,0,0,26.573524425452135,1
97.55024719238281,98.20100250244141,95.84363441467285,91.56243698120117,97.50301084730242,97.37941306203676,96.17200906357152,91.31621802236519,53.086595844403604,45.139813130106745,50.042349760400036,2.0260634734144247,2.389211933954085,-0.36314846053966043,32.527308294361696,-38.09297679232302,-46.22284640547087,56.76430955521471,-1.3796799874379873,4.3934332686693525,4.566184798377374,4.936798463062914,101.05407809259684,97.55024719238281,94.04641629216879,-1.3460540771484517,2.3709594791417987,2.2695075304080348,14.285714285714286,64.28571428571429,50.0,0.723447325811979,-0.017437914175588154,1.0453636169433593,1.032755654117959,0.2102795311091073,0.12197928653624857,0.24116321009918845,0.23712440896842749,1.0,0.5144105031907104,1.7238954012623986,7.986301369863014,51352820.696456954,91366655.88798888,-35534364.29086953,-36303461.382862605,34598975.9357428,54138199.35394541,19528830.214256752,54138199.35394541,48473903.20345582,61662879.01074258,204423928.41097182,204423928.41097182,60817350.2969317,48473903.20345582,48473903.20345582,48473903.20345582,48473903.20345582,48473903.20345582,48473903.20345582,48473903.20345582,0.08345742768519517,0.08304169952736107,6069631.10437783,6038451.492540273,6085444.488899892,6082770.650107151,2141000.0128456047,2141000.0128456047,397394546.07361424,166873282.5546069,230521263.51900733,230521263.51900733,230521263.51900733,281021841.4919044,281021841.4919044,230521263.51900733,230521263.51900733,55593247.906364754,52714330.41336362,0.0022241456444124243,-3360684.0687071728,96.21672058105467,2022-03-15,0,0,0,0,1,0,0,0,0,0,0,25.947224548615793,1
97.58491668701171,97.96942291259765,95.97256851196289,91.95604217529296,96.84318612557792,97.0419809929626,96.11024978914841,91.48121091098338,51.609698865616004,39.976942427950114,47.42557374359197,1.7434327276363462,2.2600560926905375,-0.5166233650541914,30.868798912871874,-58.51968485352855,-51.190374979106146,56.406730762093446,-2.366937546850645,4.22694794187242,4.425032917215283,2.062638693512298,101.00337589716901,97.58491668701171,94.16645747685442,-2.3157958984375,2.3267176218203853,2.2266238775008844,7.142857142857143,57.142857142857146,50.0,-0.12083363797909588,-0.007204401633516655,1.021547868423971,0.997440189662073,0.2102795311091073,0.12197928653624857,0.24116321009918845,0.23712440896842749,1.0,0.5144105031907104,1.7238954012623986,7.986301369863014,51725471.7697695,92029674.62619787,-35792225.8613321,-36566904.04610501,34850049.69066235,54531063.03354166,19670544.718760755,54531063.03354166,48825662.888930365,62110346.8953739,205907367.78781548,205907367.78781548,61258682.44883315,48825662.888930365,48825662.888930365,48825662.888930365,48825662.888930365,48825662.888930365,48825662.888930365,48825662.888930365,0.08406305167197917,0.08364430670723706,6113676.485234849,6082270.612879191,6129604.622454716,6126911.380464984,2156536.5684218816,2156536.5684218816,400278311.79698575,168084228.84748414,232194082.94950163,232194082.94950163,232194082.94950163,283061127.5415498,283061127.5415498,232194082.94950163,232194082.94950163,55996670.410139054,53096861.52929992,0.0022402855613703043,-3385071.48323053,95.5235366821289,2022-03-16,0,0,0,0,1,0,0,0,0,0,0,28.205550897846322,1
97.41879425048828,98.18723831176757,96.27088661193848,92.36226379394532,97.7755716545194,97.5144103964971,96.4464491151726,91.8011768639802,58.91938719783864,53.956388341896684,46.357714633317876,1.8305363824743495,2.1741521506473,-0.34361576817295036,30.431944112881126,61.393818129154205,-24.632315457225644,61.67880229162046,2.234870794807553,4.25712084037776,4.272487151780813,4.649368520947178,100.2983644271061,97.41879425048828,94.53922407387046,2.1781539916992188,2.254169399624481,2.16254376142453,0.0,50.0,50.0,0.6833344837984239,0.0430972948999242,1.036745379143519,1.0249565456224525,0.2102795311091073,0.12197928653624857,0.24116321009918845,0.23712440896842749,1.0,0.5144105031907104,1.7238954012623986,7.986301369863014,49588348.107768886,88227315.97154346,-34313410.68214163,-35056081.75277003,33410162.08272872,52278021.71490956,18857823.536631804,52278021.71490956,46808349.64068692,59544154.89240898,197399963.35391748,197399963.35391748,58727678.37511301,46808349.64068692,46808349.64068692,46808349.64068692,46808349.64068692,46808349.64068692,46808349.64068692,46808349.64068692,0.08058984725872984,0.08018840343676854,5861079.800634897,5830971.5139878,5876349.840445897,5873767.874216189,2067435.683100666,2067435.683100666,383740149.41280127,161139550.13526356,222600599.27753773,222600599.27753773,222600599.27753773,271365987.55028594,271365987.55028594,222600599.27753773,222600599.27753773,53683075.09177409,50903076.62469213,0.002147724447492925,-3245211.6401618095,99.64034271240234,2022-03-17,0,0,0,0,1,0,0,0,0,0,0,13.289197238695477,1
97.43908233642578,98.02389755249024,96.44692955017089,92.76260757446289,97.81387953644392,97.58278946991453,96.5839773232793,92.03997366540423,55.10884888313403,59.283953012932464,51.07242792759312,1.7383302058689054,2.086987761691621,-0.3486575558227156,30.386740541709525,43.13122480661798,-49.345628507631574,58.95698691612131,-1.6412214003790337,4.350954664228471,4.44471616052335,5.570794374287715,100.33020757397563,97.43908233642578,94.54795709887594,-1.6334075927734517,2.138804768093652,2.0542752192570646,0.0,42.85714285714286,42.85714285714286,-0.4370256227395458,-0.017561635824156818,1.057928939997724,0.9757330869058619,0.2102795311091073,0.12197928653624857,0.24116321009918845,0.23712440896842749,1.0,0.5144105031907104,1.7238954012623986,7.986301369863014,50474767.59457374,89804428.64276417,-34926782.11006833,-35682728.84190368,34007387.43621453,53212520.623382844,19194917.69079216,53212520.623382844,47645075.09837926,60608539.99971788,200928598.2225604,200928598.2225604,59777468.50753229,47645075.09837926,47645075.09837926,47645075.09837926,47645075.09837926,47645075.09837926,47645075.09837926,47645075.09837926,0.08203043590051146,0.08162181604546533,5965849.883673561,5935203.394545101,5981392.883995835,5978764.763674134,2104392.2534875916,2104392.2534875916,390599719.4385998,164020009.81551832,226579709.62308148,226579709.62308148,226579709.62308148,276216806.5148106,276216806.5148106,226579709.62308148,226579709.62308148,54642690.11604431,51812997.61984983,0.0021861162244968184,-3303221.615214693,97.89049530029295,2022-03-18,0,0,0,0,1,0,0,0,0,0,0,15.604936066246738,1
98.55830993652344,98.30621871948242,96.94553756713867,93.24360214233398,99.71607115987537,98.66236491297339,97.24459418837063,92.49018859643694,63.32684806093558,80.28660483769066,64.50898206417331,2.095392415528437,2.088668692458984,0.006723723069452792,30.845215048885226,202.4384442408932,-5.534525839578319,60.41155355494689,2.8036633309818093,4.4863908205168554,4.3338206407880975,6.247060852265861,104.28072470478018,98.55830993652344,92.8358951682667,2.823211669921875,2.2916586551506724,2.2091093307886354,71.42857142857143,100.0,28.571428571428573,0.8643117668413778,0.05751282684978376,1.0456667939419715,1.0394703473579665,0.2102795311091073,0.12197928653624857,0.24116321009918845,0.23712440896842749,1.0,0.5144105031907104,1.7238954012623986,7.986301369863014,47729697.75216118,84920415.49063933,-33027289.33710566,-33742123.911819264,32157895.93542695,50318558.10382667,18151002.2417144,50318558.10382667,45053898.06032781,57312345.02399763,190001097.9735394,190001097.9735394,56526471.348440185,45053898.06032781,45053898.06032781,45053898.06032781,45053898.06032781,45053898.06032781,45053898.06032781,45053898.06032781,0.07756921128311156,0.07718281421569881,5641397.184226296,5612417.404170339,5656094.878597129,5653609.68857865,1989944.897175714,1989944.897175714,369356956.7398573,155099782.85948187,214257173.88037542,214257173.88037542,214257173.88037542,261194757.64434046,261194757.64434046,214257173.88037542,214257173.88037542,51670947.83977133,48995148.14793797,0.002067224310658266,-3123575.93340464,103.52045440673828,2022-03-21,0,0,0,0,1,0,0,0,0,0,0,6.153007454767196,1
99.74347839355468,98.64686279296875,97.46283378601075,93.65311065673828,100.52490172865389,99.2951281771984,97.71106739578399,92.86871307760454,60.41195440908142,76.84039555249679,72.13698446770667,2.2413456202563395,2.119204078018455,0.12214154223788443,31.270941376976953,148.38445049753852,-17.892255155422376,62.269737162351845,3.4500450912298586,4.383307658840954,4.291362519053225,3.0432265570542256,105.48965941900693,99.74347839355468,93.99729736810244,3.4064407348632812,2.342661085655504,2.262144333276993,64.28571428571429,92.85714285714286,28.571428571428573,-0.3583337395281231,-0.013310331261815356,1.0302673482447133,0.9894366124589409,0.2102795311091073,0.12197928653624857,0.24116321009918845,0.23712440896842749,1.0,0.5144105031907104,1.7238954012623986,7.986301369863014,48373565.939126216,86065982.22441988,-33472823.70894,-34197301.320657335,32591702.289283786,50997349.72210251,18395857.19482254,50997349.72210251,45661670.01418431,58085482.03133695,192564191.14686775,192564191.14686775,57289007.0093957,45661670.01418431,45661670.01418431,45661670.01418431,45661670.01418431,45661670.01418431,45661670.01418431,45661670.01418431,0.07861561110932676,0.07822400158947956,5717498.989769219,5688128.275780679,5732394.954363263,5729876.239414462,2016789.027213115,2016789.027213115,374339540.021945,157192061.2666688,217147478.75527617,217147478.75527617,217147478.75527617,264718245.17871562,264718245.17871562,217147478.75527617,217147478.75527617,52367983.04156773,49656087.11662582,0.0020951109311825563,-3165712.6170168426,102.14256286621094,2022-03-22,0,0,0,0,1,0,0,0,0,0,0,0.9168637954949309,1
101.5271499633789,99.55603332519532,98.06157188415527,94.11026947021485,101.83056599618592,100.23090387793505,98.35209855154265,93.32256333068868,63.43645971960371,87.48100745965394,81.53600261661383,2.513576490456458,2.1980785605060555,0.3154979299504026,32.06080238840847,188.77451605167218,-8.999302604259187,63.52557711131176,9.535067940283604,4.315363228421296,4.131831625411676,3.4320856329657374,106.39607430304181,101.5271499633789,96.65822562371599,9.091705322265625,2.283135917837265,2.212913659902725,57.142857142857146,100.0,42.85714285714286,-0.349793566819988,0.022511004232885545,1.0198432167511249,0.9931672149220653,0.2102795311091073,0.12197928653624857,0.24116321009918845,0.23712440896842749,1.0,0.5144105031907104,1.7238954012623986,7.986301369863014,47308601.80367186,84171203.89720286,-32735905.599424023,-33444433.535767216,31874182.43360122,49874621.89745532,17990864.76201162,49874621.89745532,44656409.39330612,56806706.03140764,188324810.53965226,188324810.53965226,56027765.73771488,44656409.39330612,44656409.39330612,44656409.39330612,44656409.39330612,44656409.39330612,44656409.39330612,44656409.39330612,0.07688485579507894,0.07650186772137992,5591625.876005741,5562901.770478315,5606193.89975549,5603730.63536188,1972388.5795499703,1972388.5795499703,366098299.64889646,153731412.78278798,212366886.86610845,212366886.86610845,212366886.86610845,258890363.11869732,258890363.11869732,212366886.86610845,212366886.86610845,51215080.1554019,48562887.74503616,0.002048986194289775,-3096018.13957185,104.44189453125,2022-03-23,0,0,0,0,1,0,0,0,0,0,0,-7.817956773587301,0
102.05802459716797,99.73840942382813,98.56258888244629,94.4555972290039,101.98528262457317,100.60614242401007,98.72758591628599,93.67441245032236,58.910272009809994,77.70557542926854,80.67565948047313,2.5269331318978914,2.263849474784423,0.2630836571134685,32.01931771089629,107.28503834811482,-26.057826311082962,60.09664260901442,1.8152121558252965,4.207589558737295,4.113203230964253,2.806531852845282,106.55273319584558,102.05802459716797,97.56331599849037,1.8237609863281392,2.2098751432706143,2.1498530950301813,50.0,92.85714285714286,42.85714285714286,-0.7048182388506214,-0.020558595375344213,1.0275747479464161,0.9810296200499625,0.2102795311091073,0.12197928653624857,0.24116321009918845,0.23712440896842749,1.0,0.5144105031907104,1.7238954012623986,7.986301369863014,48301615.165842,85937967.8046786,-33423036.278488927,-34146436.3032354,32543225.43758106,50921496.33654543,18368495.22295428,50921496.33654543,45593752.91104778,57999085.76784873,192277771.44240966,192277771.44240966,57203795.42172407,45593752.91104778,45593752.91104778,45593752.91104778,45593752.91104778,45593752.91104778,45593752.91104778,45593752.91104778,0.07849867836100206,0.07810765132059858,5708994.7898910595,5679667.761860797,5723868.59824852,5721353.629632756,2013789.2580780108,2013789.2580780108,373782747.921703,156958254.0179638,216824493.9037392,216824493.9037392,216824493.9037392,264324503.63675404,264324503.63675404,216824493.9037392,216824493.9037392,52290090.977957666,49582228.72316345,0.00209199466615871,-3161003.940565811,102.29471588134766,2022-03-24,0,0,0,0,1,0,0,0,0,0,0,-0.8430133324403323,0
103.53061065673828,100.48484649658204,99.32971153259277,94.85061416625976,103.07466361576363,101.45110300112543,99.34909445741538,94.12849139729578,62.84430398572025,82.57752576966136,82.58803621952798,2.74462320579849,2.3600042209872365,0.38461898481125356,32.13566339270697,114.57015305887998,-2.5519946710912906,63.43052997386236,7.633135157524418,4.173933607109091,3.9656035738400446,3.7364062359424395,105.93938550488298,103.53061065673828,101.12183580859357,7.464370727539034,2.588537978065811,2.529759529309402,42.85714285714286,85.71428571428572,42.85714285714286,0.9932129430487886,0.028923387599303574,1.036796520711627,1.0365467806299506,0.2102795311091073,0.12197928653624857,0.24116321009918845,0.23712440896842749,1.0,0.5144105031907104,1.7238954012623986,7.986301369863014,46943840.27807931,83522222.19886565,-32483503.321342472,-33186568.32449525,31628424.263453957,49490075.694902875,17852150.55302793,49490075.694902875,44312096.95546689,56368711.671694905,186872777.6623238,186872777.6623238,55595777.20863421,44312096.95546689,44312096.95546689,44312096.95546689,44312096.95546689,44312096.95546689,44312096.95546689,44312096.95546689,0.07629205372049723,0.0759120185836579,5548512.997854345,5520010.362591393,5562968.698382411,5560524.426392802,1957180.954722594,1957180.954722594,363275587.3047238,152546103.92731053,210729483.37741327,210729483.37741327,210729483.37741327,256894251.62497193,256894251.62497193,210729483.37741327,210729483.37741327,50820198.67384056,48188455.35122814,0.0020331879820904616,-3072147.0409386875,105.25342559814452,2022-03-25,0,0,0,0,1,0,0,0,0,0,0,-9.265900717299203,0
103.26010589599609,100.90920791625976,99.62240791320801,95.18425674438477,102.77241927818487,101.58143529238032,99.61755504271176,94.44376352301074,56.74298197848972,64.01370566877326,74.76560228923442,2.637763996784784,2.415556176146746,0.222207820638038,32.0837742400273,60.676817516763215,-27.065087479594336,57.5527717926445,4.333565300749442,4.165626820538252,4.077235191073568,4.0576385951173535,105.90490078222413,103.26010589599609,100.61531100976805,4.243614196777344,2.4189113403527958,2.371239784436355,35.714285714285715,78.57142857142857,42.85714285714286,-0.3450684361106296,-0.029314912817161254,1.0237240329880974,0.9919566993024087,0.2102795311091073,0.12197928653624857,0.24116321009918845,0.23712440896842749,1.0,0.5144105031907104,1.7238954012623986,7.986301369863014,48361555.04801419,86044612.5130728,-33464512.590398807,-34188810.31829863,32583609.948358476,50984687.35986762,18391289.60437536,50984687.35986762,45650332.47195672,58071059.724725395,192516378.5143475,192516378.5143475,57274782.46316373,45650332.47195672,45650332.47195672,45650332.47195672,45650332.47195672,45650332.47195672,45650332.47195672,45650332.47195672,0.0785960912842651,0.07820457899891385,5716079.366128372,5686715.944727027,5730971.632136106,5728453.542570412,2016288.2695589804,2016288.2695589804,374246593.56726784,157153031.3399951,217093562.22727275,217093562.22727275,217093562.22727275,264652517.09031686,264652517.09031686,217093562.22727275,217093562.22727275,52354980.35859702,49643757.782539554,0.002094590726629232,-3164926.5879367697,102.16793060302734,2022-03-28,0,0,0,0,1,0,0,0,0,0,0,-9.563610254526148,0
103.22628936767578,101.48488388061523,99.84294319152832,95.45316436767578,102.50610626032638,101.65271618914925,99.84192886955915,94.73904653091657,56.37154376348644,60.09783379155555,68.89635507666343,2.5084706946149566,2.434139079840388,0.07433161477456851,30.642714450956326,13.919067983848121,-28.60992232144349,65.59826484126123,5.98311770427169,4.177838969863228,4.096985765966813,4.3365969110879234,105.93102009655539,103.22628936767578,100.52155863879617,5.756759643554702,2.436011043108188,2.3958962758382114,28.571428571428573,71.42857142857143,42.85714285714286,0.6023387899149132,-0.0019032428010459235,1.0443196306990752,1.0262888915588089,0.2102795311091073,0.12197928653624857,0.24116321009918845,0.23712440896842749,1.0,0.5144105031907104,1.7238954012623986,7.986301369863014,48453774.34522023,86208688.57899839,-33528325.133840915,-34254004.00482782,32645742.723181166,51081908.63474037,18426359.440329652,51081908.63474037,45737381.814634115,58181793.80493657,192883482.6140734,192883482.6140734,57383998.14452754,45737381.814634115,45737381.814634115,45737381.814634115,45737381.814634115,45737381.814634115,45737381.814634115,45737381.814634115,0.07874596397330873,0.07835370512412662,5726979.198058817,5697559.784370159,5741899.861712236,5739376.970471951,2020133.0732878703,2020133.0732878703,374960233.9331797,157452702.06169924,217507531.8714804,217507531.8714804,217507531.8714804,265157175.5758773,265157175.5758773,217507531.8714804,217507531.8714804,52454814.60687776,49738422.07629164,0.0020985848431242923,-3170961.6979608056,101.97348022460938,2022-03-29,0,0,0,0,1,0,0,0,0,0,0,-6.4996452157091475,0
102.81038055419921,102.16876525878907,100.06909408569337,95.72917938232422,102.45818766150666,101.78174060273433,100.08196902139801,95.0379996263264,56.978063560090995,48.803817735320685,57.638452398549866,2.4096069505239512,2.4292326539771008,-0.019625703453149512,29.868629964573188,60.58074975866891,-25.520495088381367,58.34854331467504,7.159297089779693,4.053924418968071,3.960366678370738,2.443035257331033,105.26773754167148,102.81038055419921,100.35302356672695,6.8388137817382955,2.3889911539052466,2.359358909802566,21.42857142857143,64.28571428571429,42.85714285714286,-0.21107292013156725,0.00381344481331114,1.0239973377258573,0.9949876694687925,0.2102795311091073,0.12197928653624857,0.24116321009918845,0.23712440896842749,1.0,0.5144105031907104,1.7238954012623986,7.986301369863014,48269700.50618483,85881185.41790546,-33400952.44497995,-34123874.492633805,32521722.92756311,50887850.62471499,18356358.4802917,50887850.62471499,45563627.43591299,57960763.63149051,192150726.42302155,192150726.42302155,57165998.763046846,45563627.43591299,45563627.43591299,45563627.43591299,45563627.43591299,45563627.43591299,45563627.43591299,45563627.43591299,0.07844681138730301,0.07805604271289554,5705222.646349311,5675914.995768749,5720086.627032688,5717573.320149501,2012458.6731985582,2012458.6731985582,373535775.8661168,156854545.9071653,216681229.95895156,216681229.95895156,216681229.95895156,264149854.68260103,264149854.68260103,216681229.95895156,216681229.95895156,52255540.9851412,49549467.91486935,0.0020906124080800554,-3158915.348608964,102.3623504638672,2022-03-30,0,0,0,0,1,0,0,0,0,0,0,-4.184927924150249,0
102.50944213867187,102.28373336791992,100.23548583984375,95.98279876708985,101.90213304224142,101.60142845745735,100.14940281018971,95.2635692019101,53.72583497430256,51.24433407119906,53.38199519935847,2.179261925135066,2.3792385082086938,-0.19997658307362798,28.75888455159501,37.292649369533606,-38.012036771867535,52.63478569640597,1.1538309283288806,4.045735977279762,4.0140242303730895,3.9392862353317355,105.4639459412844,102.50944213867187,99.55493833605935,1.1496810913085938,2.4428366420664376,2.4203563103309023,14.285714285714286,57.142857142857146,42.85714285714286,-0.3540762448939527,-0.015360400118120343,1.039087367765482,0.9863501494542123,0.2102795311091073,0.12197928653624857,0.24116321009918845,0.23712440896842749,1.0,0.5144105031907104,1.7238954012623986,7.986301369863014,49022708.93022728,87220933.86068164,-33922008.06161649,-34656207.709630415,33029062.543761708,51681702.250061505,18642718.08943474,51681702.250061505,46274421.05860757,58864952.86035994,195148282.11872905,195148282.11872905,58057789.6419204,46274421.05860757,46274421.05860757,46274421.05860757,46274421.05860757,46274421.05860757,46274421.05860757,46274421.05860757,0.07967058342637624,0.07927371875177412,5794224.249191,5764459.398595841,5809320.10831058,5806767.593782942,2043853.0742009347,2043853.0742009347,379362942.45216966,159301480.3852923,220061462.06687737,220061462.06687737,220061462.06687737,268270598.41417027,268270598.41417027,220061462.06687737,220061462.06687737,53070728.611168936,50322440.73954923,0.0021232260091213592,-3208194.499782374,100.79002380371094,2022-03-31,0,0,0,0,1,0,0,0,0,0,0,1.201846980678614,1
101.802734375,102.66667251586914,100.34528503417968,96.28233779907227,101.84138428808933,101.62296633424423,100.29897271205594,95.51675812653265,55.34900992400655,52.225327543629284,50.75782645004971,2.0481343856695133,2.3130176837008576,-0.26488329803134425,27.57526070611699,18.226485500446895,-30.624626496443458,52.00572706213479,3.91191347816251,3.920992594115922,3.8546961840456384,2.2993286129860024,102.90114742018123,101.802734375,100.70432132981877,3.8293914794922017,2.5878433555343925,2.573429939074387,7.142857142857143,50.0,42.85714285714286,0.38603036048872913,0.00922574418560651,1.0229052734375002,1.0088028425763202,0.2102795311091073,0.12197928653624857,0.24116321009918845,0.23712440896842749,1.0,0.5144105031907104,1.7238954012623986,7.986301369863014,48574572.35178448,86423611.7272895,-33611913.14931211,-34339401.17886727,32727130.410663944,51209258.72909237,18472297.39911011,51209258.72909237,45851407.700611785,58326844.31555097,193364352.0718982,193364352.0718982,57527059.705328934,45851407.700611785,45851407.700611785,45851407.700611785,45851407.700611785,45851407.700611785,45851407.700611785,45851407.700611785,0.07894228212605331,0.07854904535332079,5741256.881894786,5711764.123939848,5756214.743608631,5753685.5626574475,2025169.379572476,2025169.379572476,375895031.0550155,157845240.57483336,218049790.4801821,218049790.4801821,218049790.4801821,265818227.44786492,265818227.44786492,218049790.4801821,218049790.4801821,52585587.433656186,49862422.78248349,0.0021038167341189797,-3178867.0852537784,101.71988677978516,2022-04-01,0,0,0,0,1,0,0,0,0,0,0,-4.037433277412879,0
101.79766082763672,102.52888336181641,100.41755104064941,96.63843688964843,101.9417771474632,101.71743843096544,100.47455272673737,95.77659360652004,56.10277704916621,52.80326970596053,52.090977106929664,1.9557763216359518,2.2415694112878763,-0.2857930896519245,26.615839176824434,21.188035299706193,-30.051798213491622,54.520438422764116,-1.3310331261815356,3.81300889136535,3.7330264528017874,2.409220755607919,102.88949430810503,101.79766082763672,100.70582734716841,-1.3778915405273438,2.313504162370094,2.3115025055714256,0.0,42.85714285714286,42.85714285714286,-0.21052589310811126,0.004155294503432216,1.0239194161781198,0.9950588942385473,0.2102795311091073,0.12197928653624857,0.24116321009918845,0.23712440896842749,1.0,0.5144105031907104,1.7238954012623986,7.986301369863014,48373565.939126216,86065982.22441988,-33472823.70894,-34197301.320657335,32591702.289283786,50997349.72210251,18395857.19482254,50997349.72210251,45661670.01418431,58085482.03133695,192564191.14686775,192564191.14686775,57289007.0093957,45661670.01418431,45661670.01418431,45661670.01418431,45661670.01418431,45661670.01418431,45661670.01418431,45661670.01418431,0.07861561110932676,0.07822400158947956,5717498.989769219,5688128.275780679,5732394.954363263,5729876.239414462,2016789.027213115,2016789.027213115,374339540.021945,157192061.2666688,217147478.75527617,217147478.75527617,217147478.75527617,264718245.17871562,264718245.17871562,217147478.75527617,217147478.75527617,52367983.04156773,49656087.11662582,0.0020951109311825563,-3165712.6170168426,102.14256286621094,2022-04-04,0,0,0,0,1,0,0,0,0,0,0,-6.781049937892282,0
101.32427062988282,102.2752799987793,100.46107139587403,96.91565521240234,101.16336117692208,101.33363675912443,100.39188382284237,95.92678716061101,50.58504904076948,40.51743326193764,48.51534350384252,1.658823288740905,2.125020186778482,-0.46619689803757725,25.21004602835693,-52.89294209931521,-63.43226131221016,43.95303896380287,-2.4828372807649823,3.828670658941856,3.8437948679816523,4.0322736374364325,103.352033778163,101.32427062988282,99.29650748160263,-2.5360336303710938,2.326936256775911,2.327869708721451,0.0,35.714285714285715,35.714285714285715,-0.6540874869844365,-0.024828372807649823,1.0405405107479397,0.9742042563380748,0.2102795311091073,0.12197928653624857,0.24116321009918845,0.23712440896842749,1.0,0.5144105031907104,1.7238954012623986,7.986301369863014,49605181.88823869,88257266.54108608,-34325059.07222993,-35067982.257765174,33421503.846578952,52295768.560177155,18864225.21109097,52295768.560177155,46824239.69373512,59564368.37541391,197466974.8147676,197466974.8147676,58747614.68844047,46824239.69373512,46824239.69373512,46824239.69373512,46824239.69373512,46824239.69373512,46824239.69373512,46824239.69373512,0.0806172051330817,0.08021562503279238,5863069.464224123,5832950.956702424,5878344.687762909,5875761.845031878,2068137.5164900161,2068137.5164900161,383870417.86656433,161194252.25613445,222676165.61042988,222676165.61042988,222676165.61042988,271458108.29307544,271458108.29307544,222676165.61042988,222676165.61042988,53701298.91118979,50920356.71668623,0.0021484535365478806,-3246313.293723848,99.60652923583984,2022-04-05,0,0,0,0,1,0,0,0,0,0,0,-3.3862870009996597,0
100.8779296875,101.8441551208496,100.70009422302246,97.12574813842774,100.81912270193243,101.11491112145693,100.36700400656721,96.09164436027149,51.6435419012824,28.336964740373045,40.55255590275711,1.4490736740687424,1.9898308842365342,-0.5407572101677918,23.717608679959934,-88.7309312880094,-57.86167963627449,43.74844903809752,-4.12789216305044,3.800946886766151,3.7959875902348417,3.4405378484819806,102.77335758750675,100.8779296875,98.98250178749325,-4.311248779296875,1.9439216758068083,1.9466213813194884,7.142857142857143,28.571428571428573,21.42857142857143,-0.3562665077053156,0.005261869077601622,1.0347536476271222,0.987906550799136,0.2102795311091073,0.12197928653624857,0.24116321009918845,0.23712440896842749,1.0,0.5144105031907104,1.7238954012623986,7.986301369863014,49345532.15845631,87795299.17121826,-34145390.497826785,-34884424.98066948,33246564.77545053,52022035.42064338,18765483.692722004,52022035.42064338,46579146.32403162,59252589.009536795,196433368.14909476,196433368.14909476,58440110.47822349,46579146.32403162,46579146.32403162,46579146.32403162,46579146.32403162,46579146.32403162,46579146.32403162,46579146.32403162,0.0801952283409035,0.07979575024206961,5832380.2429748,5802419.385562258,5847575.5110026235,5845006.187714354,2057312.2089945357,2057312.2089945357,381861114.67531586,160350508.87192363,221510605.80339223,221510605.80339223,221510605.80339223,270037207.8592391,270037207.8592391,221510605.80339223,221510605.80339223,53420208.76656199,50653822.9321373,0.002137207828761314,-3229321.0292583453,100.13064575195312,2022-04-06,0,0,0,0,1,0,0,0,0,0,0,-9.746985825708038,0
101.11293182373046,101.81118698120117,100.77479820251465,97.36263961791992,101.20109329624272,101.26947900571263,100.51919738545256,96.32197338476529,55.25607515333583,29.892319752600923,32.915572584970576,1.4145592746110793,1.8747765623114432,-0.46021728770036385,22.264496058490465,-83.08507641562448,-46.717747292900384,43.23946268619848,-0.3222858518584393,3.775807312925708,3.703041274885487,3.4489928529999503,103.18922622116949,101.11293182373046,99.03663742629143,-0.329681396484375,1.76788598238593,1.7731465070675512,0.0,21.42857142857143,21.42857142857143,0.14706025349026464,0.018319953088631546,1.0348956713560602,1.0049992177995142,0.2102795311091073,0.12197928653624857,0.24116321009918845,0.23712440896842749,1.0,0.5144105031907104,1.7238954012623986,7.986301369863014,48457787.7599158,86215829.22433107,-33531102.277100205,-34256841.255896755,32648446.76234764,51086139.73717899,18427885.6913341,51086139.73717899,45741170.231177345,58186612.98918851,192899459.10742438,192899459.10742438,57388751.24755318,45741170.231177345,45741170.231177345,45741170.231177345,45741170.231177345,45741170.231177345,45741170.231177345,45741170.231177345,0.07875248648292325,0.07836019514303323,5727453.562394419,5698031.711902667,5742375.461922888,5739852.361712118,2020300.400433648,2020300.400433648,374991291.80087847,157465743.83185753,217525547.96902093,217525547.96902093,217525547.96902093,265179138.48216215,265179138.48216215,217525547.96902093,217525547.96902093,52459159.42679409,49742541.89805564,0.0020987586684116538,-3171224.3479700084,101.96503448486328,2022-04-07,0,0,0,0,1,0,0,0,0,0,0,-14.676730844644359,0
102.22032623291015,102.01153030395508,101.24818840026856,97.66815612792969,103.21968180605634,102.35809351843461,101.16087942737933,96.75079242166404,63.684526906065805,59.08101858582287,39.103434359598985,1.7935375782967498,1.8585287655085045,-0.06499118721175479,22.725917699825015,207.63840367463158,-8.770493459018965,50.83421781131713,1.9034375519407343,3.9487024270914435,3.6815383839545115,6.196338911246002,107.6341293937413,102.22032623291015,96.806523072079,2.0034332275390767,1.6200849036888336,1.6310087839762417,42.85714285714286,100.0,57.142857142857146,0.7909236145287449,0.051898421528076666,1.050665119320023,1.0399999774870325,0.2102795311091073,0.12197928653624857,0.24116321009918845,0.23712440896842749,1.0,0.5144105031907104,1.7238954012623986,7.986301369863014,46066984.00547261,81962124.34570122,-31876749.304738082,-32566681.872316502,31037642.127953514,48565658.709675536,17518693.168646637,48565658.709675536,43484398.58359123,55315809.776253596,183382211.77972895,183382211.77972895,54557312.8289188,43484398.58359123,43484398.58359123,43484398.58359123,43484398.58359123,43484398.58359123,43484398.58359123,43484398.58359123,0.07486700699533395,0.0744940704723186,5444873.2360242875,5416902.996798135,5459058.9208994415,5456660.305064363,1920623.0935291152,1920623.0935291152,356490022.3503847,149696720.33836636,206793302.01201832,206793302.01201832,206793302.01201832,252095766.14530945,252095766.14530945,206793302.01201832,206793302.01201832,49870936.540229306,47288351.11834792,0.0019952103981321877,-3014762.9115777356,107.2568588256836,2022-04-08,0,0,0,0,1,0,0,0,0,0,0,-15.542504889079964,0
102.30654907226562,102.05210494995117,101.48065643310547,97.88084671020508,103.00434689170032,102.39729052653529,101.29543158315161,96.97914083897088,53.99150036145104,65.84082901169556,51.60472245003982,1.6964315778548809,1.8261093279777798,-0.12967775012289895,22.843786182887474,58.805190434834856,-54.180281604040964,48.95477769645623,0.39713680953121777,4.026525357011396,3.9254957727008204,5.038223445970772,107.72638070124135,102.30654907226562,96.8867174432899,0.4057464599609375,1.524885892522703,1.5369565425774994,35.714285714285715,92.85714285714286,57.142857142857146,-0.9086960199425809,-0.043663238080713596,1.038041668407025,0.9666985307762379,0.2102795311091073,0.12197928653624857,0.24116321009918845,0.23712440896842749,1.0,0.5144105031907104,1.7238954012623986,7.986301369863014,48170253.24114917,85704249.39140709,-33332138.399410855,-34053571.05268854,32454720.307586644,50783009.33680349,18318539.93930769,50783009.33680349,45469755.336312436,57841350.43103381,191754849.42322668,191754849.42322668,57048222.97056418,45469755.336312436,45469755.336312436,45469755.336312436,45469755.336312436,45469755.336312436,45469755.336312436,45469755.336312436,0.07828519197053792,0.07789522837417161,5693468.506948212,5664221.237220739,5708301.864234075,5705793.735371326,2008312.521286527,2008312.521286527,372766201.7665614,156531387.58143923,216234814.1851222,216234814.1851222,216234814.1851222,263605642.0537204,263605642.0537204,216234814.1851222,216234814.1851222,52147881.924085595,49447384.01924886,0.00208630524055979,-3152407.218485843,102.57367706298828,2022-04-11,0,0,0,0,1,0,0,0,0,0,0,-11.308213886428382,0
103.4460678100586,102.3851692199707,101.93502655029297,98.11830978393554,103.77093890273511,102.9258055080388,101.67721171092809,97.30561072468986,58.004806600636215,66.57601677766912,63.83262145839589,1.8188321695868552,1.8246538962995948,-0.005821726712739617,23.313631445214547,154.3823268504477,-27.704911992254857,49.04206575109226,3.266185181538517,4.093355365505513,3.8871748340076735,4.962145475929034,108.49946632776796,103.4460678100586,98.39266929234923,3.3306427001952983,1.3509065112653873,1.3639936202611693,28.571428571428573,85.71428571428572,57.142857142857146,0.21937212946921641,0.026619362198936125,1.0283751190204078,1.0062196819393006,0.2102795311091073,0.12197928653624857,0.24116321009918845,0.23712440896842749,1.0,0.5144105031907104,1.7238954012623986,7.986301369863014,46921239.76502096,83482011.49044712,-32467864.55304729,-33170591.074523013,31613197.1620633,49466249.32928439,17843555.86287682,49466249.32928439,44290763.461659126,56341573.67453336,186782810.1473785,186782810.1473785,55569011.3309099,44290763.461659126,44290763.461659126,44290763.461659126,44290763.461659126,44290763.461659126,44290763.461659126,44290763.461659126,0.07625532388446028,0.07587547171068963,5545841.737051657,5517352.824018857,5560290.478067111,5557847.38284107,1956238.6949189065,1956238.6949189065,363100692.9073753,152472662.5515435,210628030.35583177,210628030.35583177,210628030.35583177,256770573.16462287,256770573.16462287,210628030.35583177,210628030.35583177,50795731.9374817,48165255.634119876,0.002032209129673039,-3070667.9949359614,105.30412292480467,2022-04-12,0,0,0,0,1,0,0,0,0,0,0,-15.098002365092144,0
104.43653717041016,102.65723342895508,102.41299934387207,98.32285552978516,104.20829011972705,103.31802133452464,102.00157179119313,97.61060609053382,57.56684486849413,58.80452418693573,63.740456658766846,1.8763626073569952,1.8349956385110748,0.04136696884592039,23.24339722516017,100.85226950047908,-29.84907034711176,48.95107208980768,2.657854257463632,4.048821663857603,3.852975220312777,3.469883542434772,108.30470440025113,104.43653717041016,100.5683699405692,2.720642089843736,1.3464739972002022,1.3628050486246792,21.42857142857143,78.57142857142857,57.142857142857146,-0.32107955884167305,-0.002099921303666763,1.033552647057993,0.9895090481366702,0.2102795311091073,0.12197928653624857,0.24116321009918845,0.23712440896842749,1.0,0.5144105031907104,1.7238954012623986,7.986301369863014,47019978.018560074,83657686.04759392,-32536187.98734201,-33240393.284523442,31679722.0853646,49570343.14889282,17881104.77572847,49570343.14889282,44383966.29802959,56460135.51591113,187175864.73326412,187175864.73326412,55685947.43825035,44383966.29802959,44383966.29802959,44383966.29802959,44383966.29802959,44383966.29802959,44383966.29802959,44383966.29802959,0.0764157910319849,0.07603513951999494,5557512.075053447,5528963.2116542,5571991.221136219,5569542.984806553,1960355.286748305,1960355.286748305,363864780.3112048,152793516.9127708,211071263.398434,211071263.398434,211071263.398434,257310905.81741464,257310905.81741464,211071263.398434,211071263.398434,50902623.440857686,48266611.7203272,0.0020364855891462975,-3077129.725200055,105.08299255371094,2022-04-13,0,0,0,0,1,0,0,0,0,0,0,-18.373430076063798,0
104.95467834472656,103.03380508422852,102.65876922607421,98.52121429443359,104.32410686529981,103.54306115669205,102.24482594026476,97.88296429704016,56.4719815751615,58.55602599428405,61.31218898629634,1.857993258165905,1.8395951624420408,0.018398095723864305,23.178179735109673,76.29762929248723,-34.96149429092409,51.11148396133556,3.736199685861896,3.8574232273915583,3.689346193945025,1.3692435533329785,107.95693478144949,104.95467834472656,101.95242190800363,3.765716552734389,1.205051361564235,1.2239337334266054,14.285714285714286,71.42857142857143,57.142857142857146,-0.03726555021655766,-0.005017483652229648,1.013163278901876,0.9995122149707826,0.2102795311091073,0.12197928653624857,0.24116321009918845,0.23712440896842749,1.0,0.5144105031907104,1.7238954012623986,7.986301369863014,47257089.6935494,84079553.83444501,-32700261.01239535,-33408017.466012564,31839476.13637441,49820315.76881175,17971275.356037103,49820315.76881175,44607785.130684964,56744851.88258017,188119752.5161755,188119752.5161755,55966759.740315646,44607785.130684964,44607785.130684964,44607785.130684964,44607785.130684964,44607785.130684964,44607785.130684964,44607785.130684964,0.07680113949386798,0.07641856843785869,5585537.417735853,5556844.588535156,5600089.579050125,5597628.996789189,1970240.9384479208,1970240.9384479208,365699672.4392947,153564021.88213503,212135650.55715963,212135650.55715963,212135650.55715963,258608469.58588997,258608469.58588997,212135650.55715963,212135650.55715963,51159314.464844316,48510009.90197988,0.002046755149649782,-3092647.0311208204,104.55574035644533,2022-04-14,0,0,0,0,1,0,0,0,0,0,0,-18.044260463663687,0
