SMA_5,SMA_10,SMA_20,SMA_50,EMA_5,EMA_10,EMA_20,EMA_50,RSI,STOCH_K,STOCH_D,MACD,MACD_Signal,MACD_Hist,ADX,CCI,WILLR,ULTOSC,ROC,ATR,NATR,TRANGE,BB_Upper,BB_Middle,BB_Lower,MOM,PPO,APO,AROON_Up,AROON_Down,AROONOSC,BOP,Price_Change,High_Low_Ratio,Close_Open_Ratio,ROE,ROA,Debt_to_Equity,Profit_Margin,Operating_Margin,Asset_Turnover,Financial_Leverage,EPS_Calc,Free_Cash_Flow,Operating_Cash_Flow,Investing_Cash_Flow,Financing_Cash_Flow,Beginning_Cash_Position,End_Cash_Position,Changes_In_Cash,Cash_And_Cash_Equivalents,Net_Income,Pretax_Income,Total_Revenue,Operating_Revenue,Normalized_Income,Net_Income_Common_Stockholders,Net_Income_From_Continuing_Operations,Net_Income_From_Continuing_And_Discontinued_Operation,Net_Income_Including_Noncontrolling_Interests,Net_Income_Continuous_Operations,Diluted_NI_Availto_Com_Stockholders,Net_Income_From_Continuing_Operation_Net_Minority_Interest,Basic_EPS,Diluted_EPS,Diluted_Average_Shares,Basic_Average_Shares,Share_Issued,Ordinary_Shares_Number,Capital_Stock,Common_Stock,Total_Assets,Total_Liabilities_Net_Minority_Interest,Total_Equity_Gross_Minority_Interest,Common_Stock_Equity,Stockholders_Equity,Total_Capitalization,Invested_Capital,Net_Tangible_Assets,Tangible_Book_Value,Total_Debt,Long_Term_Debt_And_Capital_Lease_Obligation,Tax_Rate_For_Calcs,Tax_Effect_Of_Unusual_Items,Close,Date,Sector_basic-materials,Sector_communication-services,Sector_consumer-cyclical,Sector_consumer-defensive,Sector_energy,Sector_financial-services,Sector_healthcare,Sector_industrials,Sector_real-estate,Sector_technology,Sector_utilities,Target_3M_Return,Target_Direction
158.91334838867186,157.24366302490233,151.5724853515625,139.03404235839844,158.91334838867186,157.24366302490233,151.5724853515625,139.03404235839844,19.142220411849564,28.12569627373465,17.278214162365956,-4.447923385312549,-5.179693921201517,0.7317705358889679,39.26957522792001,-155.33271986076798,-96.97302049517118,44.42148322885245,-4.314540425680735,3.534237191367091,2.4663519025485874,3.055993412164895,160.7725703516473,158.91334838867186,157.05412642569644,-6.889862060546875,-4.253707230020068,-6.374241755558899,100.0,21.42857142857143,-78.57142857142857,0.6147886027774637,0.6336507577725383,1.0150812276873455,1.009247347684716,0.22445796287630634,0.06739731160133015,1.1645609109343316,0.08564456612308058,1.0,0.7869420636035783,3.396595609290487,6.010860484544695,7458230.080411627,9781490.668012561,-15054227.635020614,582380.6863797492,11434700.358380882,6293468.707652128,-4690356.280628303,6293468.707652128,9011245.244090958,11365816.621282201,105216777.33927469,105216777.33927469,8822654.096230607,9011245.244090958,9023769.559927082,9011245.244090958,9142750.560370257,9023769.559927082,9011245.244090958,8892264.243647784,0.037948676983454624,0.037635569087551536,1499160.6055839995,1487888.7213314883,3639228.8771034307,1477287.0507923155,6068031.0226019025,6068031.0226019025,133703333.7085379,93556639.29584359,40146694.41269432,39363924.672936596,39363924.672936596,80518826.51043887,80575185.93170142,-17189623.485079695,-17189623.485079695,46753271.016249545,45494577.27471912,0.0012900045311207346,18060.06343569029,159.68936157226562,2021-12-31,1,0,0,0,0,0,0,0,0,0,0,-20.888437921448215,0
158.91334838867186,157.24366302490233,151.5724853515625,139.03404235839844,158.91334838867186,157.24366302490233,151.5724853515625,139.03404235839844,19.142220411849564,28.12569627373465,17.278214162365956,-4.447923385312549,-5.179693921201517,0.7317705358889679,39.26957522792001,-155.33271986076798,-96.97302049517118,44.42148322885245,-4.314540425680735,3.534237191367091,2.4663519025485874,3.055993412164895,160.7725703516473,158.91334838867186,157.05412642569644,-6.889862060546875,-4.253707230020068,-6.374241755558899,100.0,21.42857142857143,-78.57142857142857,-0.4545450341935289,-0.010670110904483221,1.0194564178991956,0.9912841374386833,0.22445796287630634,0.06739731160133015,1.1645609109343316,0.08564456612308058,1.0,0.7869420636035783,3.396595609290487,6.010860484544695,7538668.509479912,9886985.90412059,-15216590.341553072,588661.7727805473,11558025.775239563,6361344.963918818,-4740942.664651935,6361344.963918818,9108433.236894704,11488399.11394294,106351560.28235221,106351560.28235221,8917808.097657513,9108433.236894704,9121092.629857728,9108433.236894704,9241356.86300644,9121092.629857728,9108433.236894704,8988169.003745992,0.03835796067795824,0.03804147585388268,1515329.3376737959,1503935.8840070758,3678478.652283065,1493219.8724359856,6133475.890584412,6133475.890584412,135145349.57674694,94565665.43377824,40579684.1429687,39788472.08277979,39788472.08277979,81387237.3592718,81444204.6276054,-17375016.841748413,-17375016.841748413,47257513.93096308,45985244.938179314,0.0013039174751913198,18254.84465267848,157.98545837402344,2022-01-03,1,0,0,0,0,0,0,0,0,0,0,-21.771124140225727,0
158.91334838867186,157.24366302490233,151.5724853515625,139.03404235839844,158.91334838867186,157.24366302490233,151.5724853515625,139.03404235839844,19.142220411849564,28.12569627373465,17.278214162365956,-4.447923385312549,-5.179693921201517,0.7317705358889679,39.26957522792001,-155.33271986076798,-96.97302049517118,44.42148322885245,-4.314540425680735,3.534237191367091,2.4663519025485874,2.4910970881309424,160.7725703516473,158.91334838867186,157.05412642569644,-6.889862060546875,-4.253707230020068,-6.374241755558899,100.0,21.42857142857143,-78.57142857142857,0.3420064438545173,0.0038098328767348644,1.0157956687798104,1.0054012690603846,0.22445796287630634,0.06739731160133015,1.1645609109343316,0.08564456612308058,1.0,0.7869420636035783,3.396595609290487,6.010860484544695,7510056.449512426,9849461.103390772,-15158837.70329796,586427.5816999627,11514158.754668085,6337201.2861125,-4722949.018207227,6337201.2861125,9073863.33404566,11444796.35253153,105947916.42712659,105947916.42712659,8883961.688341616,9073863.33404566,9086474.67988867,9073863.33404566,9206282.465397263,9086474.67988867,9073863.33404566,8954055.548537064,0.038212377904320145,0.0378970942582449,1509578.0974082912,1498227.8861495822,3664517.4532124475,1487552.5458409702,6110197.060938321,6110197.060938321,134632422.54705274,94206753.44728433,40425669.09976839,39637459.98458027,39637459.98458027,81078342.42471097,81135093.48100452,-17309072.169531155,-17309072.169531155,47078154.03195614,45810713.77473365,0.001298968621830025,18185.560705620348,158.5873565673828,2022-01-04,1,0,0,0,0,0,0,0,0,0,0,-23.164260297208333,0
158.91334838867186,157.24366302490233,151.5724853515625,139.03404235839844,158.91334838867186,157.24366302490233,151.5724853515625,139.03404235839844,19.142220411849564,28.12569627373465,17.278214162365956,-4.447923385312549,-5.179693921201517,0.7317705358889679,39.26957522792001,-155.33271986076798,-96.97302049517118,44.42148322885245,-4.314540425680735,3.534237191367091,2.4663519025485874,5.639702294817283,160.7725703516473,158.91334838867186,157.05412642569644,-6.889862060546875,-4.253707230020068,-6.374241755558899,100.0,21.42857142857143,-78.57142857142857,0.16748806734900912,0.010803141021021423,1.0355662661253002,1.0059275003580157,0.22445796287630634,0.06739731160133015,1.1645609109343316,0.08564456612308058,1.0,0.7869420636035783,3.396595609290487,6.010860484544695,7429791.365632728,9744193.210006988,-14996824.889152879,580160.0310695581,11391099.104656056,6269471.3034936115,-4672471.648076334,6269471.3034936115,8976884.781818217,11322478.025712345,104815578.94656684,104815578.94656684,8789012.744230144,8976884.781818217,8989361.341626164,8976884.781818217,9107888.659801666,8989361.341626164,8976884.781818217,8858357.463642715,0.03780397621808088,0.0374920622228822,1493444.2090113142,1482215.3051841613,3625352.261480792,1471654.0595020114,6044893.226950557,6044893.226950557,133193514.22974339,93199901.76536772,39993612.46437567,39213827.47637895,39213827.47637895,80211803.00529438,80267947.52443016,-17124078.336407926,-17124078.336407926,46574997.76306797,45321103.50236925,0.001285085660218591,17991.199243060277,160.30059814453125,2022-01-05,1,0,0,0,0,0,0,0,0,0,0,-22.280404665764276,0
158.91334838867186,157.24366302490233,151.5724853515625,139.03404235839844,158.91334838867186,157.24366302490233,151.5724853515625,139.03404235839844,19.142220411849564,28.12569627373465,17.278214162365956,-4.447923385312549,-5.179693921201517,0.7317705358889679,39.26957522792001,-155.33271986076798,-96.97302049517118,44.42148322885245,-4.314540425680735,3.534237191367091,2.4663519025485874,3.157860288884251,160.7725703516473,158.91334838867186,157.05412642569644,-6.889862060546875,-4.253707230020068,-6.374241755558899,100.0,21.42857142857143,-78.57142857142857,-0.7595333768872072,-0.014327026136884968,1.020071832799813,0.985046986338623,0.22445796287630634,0.06739731160133015,1.1645609109343316,0.08564456612308058,1.0,0.7869420636035783,3.396595609290487,6.010860484544695,7537785.41427731,9885827.722167218,-15214807.83872599,588592.8157244247,11556671.84422365,6360599.78282846,-4740387.300834345,6360599.78282846,9107366.256209109,11487053.339137966,106339102.0408794,106339102.0408794,8916763.44719452,9107366.256209109,9120024.166224688,9107366.256209109,9240274.311372688,9120024.166224688,9107366.256209109,8987116.111061107,0.03835346734720445,0.03803701959681497,1515151.8288648094,1503759.7098507883,3678047.747694725,1493044.953575431,6132757.4025480375,6132757.4025480375,135129518.3713139,94554587.81637532,40574930.55493857,39783811.178964876,39783811.178964876,81377703.49015756,81434664.08522767,-17372981.496382214,-17372981.496382214,47251978.0881565,45979858.13159081,0.0013037647316046395,18252.706242464956,158.00396728515625,2022-01-06,1,0,0,0,0,0,0,0,0,0,0,-21.52728338181901,0
158.03730163574218,157.24366302490233,151.5724853515625,139.03404235839844,157.7119415283203,157.24366302490233,151.5724853515625,139.03404235839844,19.142220411849564,28.12569627373465,17.278214162365956,-4.447923385312549,-5.179693921201517,0.7317705358889679,39.26957522792001,-155.33271986076798,-96.97302049517118,44.42148322885245,-4.314540425680735,3.534237191367091,2.4663519025485874,2.954148608109989,161.24626444060172,158.03730163574218,154.82833883088264,-6.889862060546875,-4.253707230020068,-6.374241755558899,100.0,21.42857142857143,-78.57142857142857,-0.88311180028833,-0.017055517806559672,1.0183957592175195,0.984040450162499,0.22445796287630634,0.06739731160133015,1.1645609109343316,0.08564456612308058,1.0,0.7869420636035783,3.396595609290487,6.010860484544695,7668576.965259263,10057361.225638093,-15478806.905527513,598805.7579925369,11757196.92574594,6470965.449274189,-4822639.921896883,6470965.449274189,9265392.319906028,11686370.438241446,108184240.27731833,108184240.27731833,9071482.274661908,9265392.319906028,9278269.863088664,9265392.319906028,9400606.523323698,9278269.863088664,9265392.319906028,9143055.659670994,0.03901895584338466,0.03869701726381878,1541441.9189614337,1529852.130097062,3741867.230880795,1518951.4572010227,6239169.671986755,6239169.671986755,137474212.2462221,96195247.57428496,41278964.67193714,40474118.22302244,40474118.22302244,82789725.12116171,82847674.06548357,-17674428.018166814,-17674428.018166814,48071868.70077721,46777675.610922374,0.0013263869478114258,18569.41726935996,155.3091278076172,2022-01-07,1,0,0,0,0,0,0,0,0,0,0,-20.740319221043826,0
157.22051391601562,157.24366302490233,151.5724853515625,139.03404235839844,156.4418009440104,157.24366302490233,151.5724853515625,139.03404235839844,19.142220411849564,28.12569627373465,17.278214162365956,-4.447923385312549,-5.179693921201517,0.7317705358889679,39.26957522792001,-155.33271986076798,-96.97302049517118,44.42148322885245,-4.314540425680735,3.534237191367091,2.4663519025485874,2.602230287898749,161.83684109946856,157.22051391601562,152.60418673256268,-6.889862060546875,-4.253707230020068,-6.374241755558899,100.0,21.42857142857143,-78.57142857142857,-0.31538082326842204,-0.009063266609610876,1.0157671691919392,0.995090161712471,0.22445796287630634,0.06739731160133015,1.1645609109343316,0.08564456612308058,1.0,0.7869420636035783,3.396595609290487,6.010860484544695,7738715.002543107,10149347.467650993,-15620378.56096862,604282.5316847262,11864730.138239892,6530149.939173654,-4866748.561632902,6530149.939173654,9350135.08703571,11793255.86029869,109173710.72437386,109173710.72437386,9154451.509355955,9350135.08703571,9363130.410297746,9350135.08703571,9486585.9812871,9363130.410297746,9350135.08703571,9226679.516046356,0.03937582948397248,0.03905094640242155,1555540.1944658435,1543844.4035300103,3776090.9499018947,1532844.0313278981,6296234.120456986,6296234.120456986,138731573.4838773,97075064.76741731,41656508.71646,40844301.012582675,40844301.012582675,83546933.25163665,83605412.20631583,-17836081.17714595,-17836081.17714595,48511541.73718458,47205511.74934985,0.0013385182959898235,18739.256143857532,153.90151977539062,2022-01-10,1,0,0,0,0,0,0,0,0,0,0,-18.970369092482816,0
156.7685974121094,157.24366302490233,151.5724853515625,139.03404235839844,156.40379197862413,157.24366302490233,151.5724853515625,139.03404235839844,19.142220411849564,28.12569627373465,17.278214162365956,-4.447923385312549,-5.179693921201517,0.7317705358889679,39.26957522792001,-155.33271986076798,-96.97302049517118,44.42148322885245,-4.314540425680735,3.534237191367091,2.4663519025485874,3.833877723495391,161.1999113334587,156.7685974121094,152.3372834907601,-6.889862060546875,-4.253707230020068,-6.374241755558899,100.0,21.42857142857143,-78.57142857142857,0.49999815715080603,0.01576497929326437,1.0251091658602929,1.0124144896079816,0.22445796287630634,0.06739731160133015,1.1645609109343316,0.08564456612308058,1.0,0.7869420636035783,3.396595609290487,6.010860484544695,7618607.80820328,9991826.529314462,-15377945.567523666,594903.8842677624,11680585.942719722,6428800.039667755,-4791215.153941441,6428800.039667755,9205018.166250646,11610220.96716117,107479301.75770907,107479301.75770907,9012371.65680325,9205018.166250646,9217811.798170384,9205018.166250646,9339351.301407883,9217811.798170384,9205018.166250646,9083478.663013147,0.03876470471680258,0.03844486391880916,1531397.7407924982,1519883.472064735,3717484.8777806596,1509053.8289618928,6198514.665112493,6198514.665112493,136578417.5591505,95568430.4404341,41009987.1187164,40210385.12373284,40210385.12373284,82250259.61198805,82307830.95562688,-17559259.809838794,-17559259.809838794,47758627.95637757,46472867.948444024,0.001317744087732893,18448.417228260503,156.32777404785156,2022-01-11,1,0,0,0,0,0,0,0,0,0,0,-20.222024252186184,0
155.90736083984376,157.24366302490233,151.5724853515625,139.03404235839844,156.26733308015045,157.24366302490233,151.5724853515625,139.03404235839844,19.142220411849564,28.12569627373465,17.278214162365956,-4.447923385312549,-5.179693921201517,0.7317705358889679,39.26957522792001,-155.33271986076798,-96.97302049517118,44.42148322885245,-4.314540425680735,3.534237191367091,2.4663519025485874,2.3707054289942278,158.5848769223001,155.90736083984376,153.2298447573874,-6.889862060546875,-4.253707230020068,-6.374241755558899,100.0,21.42857142857143,-78.57142857142857,-0.41406194120592316,-0.002132434666065164,1.0153265735335146,0.9937466958117859,0.22445796287630634,0.06739731160133015,1.1645609109343316,0.08564456612308058,1.0,0.7869420636035783,3.396595609290487,6.010860484544695,7634888.709559093,10013178.979287408,-15410808.108967304,596175.188907637,11705547.257476829,6442538.33174382,-4801453.94077226,6442538.33174382,9224689.213312792,11635031.912552271,107708984.12931308,107708984.12931308,9031631.019881153,9224689.213312792,9237510.185117258,9224689.213312792,9359309.417259678,9237510.185117258,9224689.213312792,9102889.981170371,0.038847544567529896,0.038527020272418264,1534670.324994498,1523131.4503704791,3725429.111964982,1512278.6644106326,6211760.839263444,6211760.839263444,136870284.49856943,95772659.37935588,41097625.11921356,40296314.38143448,40296314.38143448,82426027.73090748,82483722.10402758,-17596783.80162864,-17596783.80162864,47860687.74606901,46572180.079720244,0.0013205600958599271,18487.84134203898,155.99441528320312,2022-01-12,1,0,0,0,0,0,0,0,0,0,0,-21.01699557381459,0
155.5739776611328,157.24366302490233,151.5724853515625,139.03404235839844,156.29057251730083,157.24366302490233,151.5724853515625,139.03404235839844,19.142220411849564,45.67688685312842,29.57967014864363,-4.447923385312549,-5.179693921201517,0.7317705358889679,39.26957522792001,-155.33271986076798,-96.97302049517118,44.42148322885245,-4.314540425680735,3.534237191367091,2.4663519025485874,2.6670504196082163,157.40581152463102,155.5739776611328,153.74214379763458,-6.889862060546875,-4.253707230020068,-6.374241755558899,100.0,21.42857142857143,-78.57142857142857,-0.20485949222227676,0.0021964639424840726,1.017117413865156,0.9965173465253717,0.22445796287630634,0.06739731160133015,1.1645609109343316,0.08564456612308058,1.0,0.7869420636035783,3.396595609290487,6.010860484544695,7618155.705244295,9991233.594955154,-15377033.010417536,594868.5815178165,11679892.794102505,6428418.542208662,-4790930.833944565,6428418.542208662,9204471.92262514,11609531.994138032,107472923.72755218,107472923.72755218,9011836.845195133,9204471.92262514,9217264.795345953,9204471.92262514,9338797.086193679,9217264.795345953,9204471.92262514,9082939.631777413,0.038762404344064166,0.038442582526043836,1531306.864681347,1519793.2792326151,3717264.2750202157,1508964.278781792,6198146.833234023,6198146.833234023,136570312.73104194,95562759.22447504,41007553.5065669,40207998.96151607,40207998.96151607,82245378.72210844,82302946.64935209,-17558217.809316196,-17558217.809316196,47755793.86679589,46470110.158354156,0.0013176658902437654,18447.32246341272,156.33705139160156,2022-01-13,1,0,0,0,0,0,0,0,0,0,0,-21.65392718217048,0
155.07205200195312,156.55467681884767,151.5724853515625,139.03404235839844,155.12688151544015,156.43563329523258,151.5724853515625,139.03404235839844,19.142220411849564,39.12148680971847,37.64135664552719,-4.447923385312549,-5.179693921201517,0.7317705358889679,39.26957522792001,-155.33271986076798,-96.97302049517118,44.42148322885245,-4.314540425680735,3.534237191367091,2.4663519025485874,4.306181360967457,157.97893429736848,155.07205200195312,152.16516970653777,-6.889862060546875,-4.253707230020068,-6.374241755558899,100.0,21.42857142857143,-78.57142857142857,-0.13076751528810046,-0.022627725471307203,1.0237559188571104,0.9969186482764647,0.22445796287630634,0.06739731160133015,1.1645609109343316,0.08564456612308058,1.0,0.7869420636035783,3.396595609290487,6.010860484544695,7794528.148363849,10222546.572413377,-15733035.825916618,608640.7370258925,11950300.922680426,6577246.674312064,-4901848.516477349,6577246.674312064,9417570.113766229,11878311.158085966,109961093.15601124,109961093.15601124,9220475.227354705,9417570.113766229,9430659.161874313,9417570.113766229,9555005.118901107,9430659.161874313,9417570.113766229,9293224.156739434,0.03965981576749364,0.03933258956479155,1566759.0585376201,1554978.9152403446,3803324.865965479,1543899.2061744772,6341643.808366558,6341643.808366558,139732133.07784763,97775189.36738531,41956943.71046233,41138878.2037071,41138878.2037071,84149490.28687017,84208391.00335655,-17964718.528344892,-17964718.528344892,48861416.587476484,47545967.25261407,0.001348171955132622,18874.40737185671,152.79949951171875,2022-01-14,1,0,0,0,0,0,0,0,0,0,0,-21.689705716112893,0
154.6275421142578,155.9240280151367,151.5724853515625,139.03404235839844,153.97757778926479,155.5707854846292,151.5724853515625,139.03404235839844,19.142220411849564,35.771848993503276,40.190074218783394,-4.447923385312549,-5.179693921201517,0.7317705358889679,39.26957522792001,-155.33271986076798,-96.97302049517118,44.42148322885245,-3.9918155139184064,3.534237191367091,2.4663519025485874,4.370986312042845,158.5991783654946,154.6275421142578,150.65590586302102,-6.306488037109375,-4.253707230020068,-6.374241755558899,100.0,21.42857142857143,-78.57142857142857,0.21095624691688672,-0.007333330137764937,1.0227726099593397,1.0047232793123044,0.22445796287630634,0.06739731160133015,1.1645609109343316,0.08564456612308058,1.0,0.7869420636035783,3.396595609290487,6.010860484544695,7852110.265216817,10298065.687883012,-15849263.709136212,613137.0736063509,12038583.832313944,6625836.118004115,-4938060.947646848,6625836.118004115,9487142.46150042,11966062.242962657,110773431.29821408,110773431.29821408,9288591.535600109,9487142.46150042,9500328.205018835,9487142.46150042,9625592.76844379,9500328.205018835,9487142.46150042,9361877.898075467,0.03995280286080093,0.039623159272840526,1578333.4991544131,1566466.3299878386,3831421.948007295,1555304.7695141651,6388492.734672625,6388492.734672625,140764404.9308516,98497504.08256863,42266900.84828297,41442791.87838196,41442791.87838196,84771145.07989742,84830480.9257303,-18097432.979026165,-18097432.979026165,49222380.55424748,47897213.330646664,0.0013581315823968634,19013.84215355609,151.67897033691406,2022-01-18,1,0,0,0,0,0,0,0,0,0,0,-19.958909234637968,0
153.2829132080078,155.0257553100586,151.5724853515625,139.03404235839844,152.5199283650437,154.4860298540787,151.5724853515625,139.03404235839844,19.142220411849564,18.66025157143364,31.18452912488513,-4.447923385312549,-5.179693921201517,0.7317705358889679,39.26957522792001,-155.33271986076798,-96.97302049517118,44.42148322885245,-5.664213872538159,3.534237191367091,2.4663519025485874,3.5468028112588,158.42225915847487,153.2829132080078,148.14356725754075,-8.98272705078125,-4.253707230020068,-6.374241755558899,100.0,21.42857142857143,-78.57142857142857,-0.9712792277383163,-0.013675863013210776,1.0237239951259587,0.9774913709412725,0.22445796287630634,0.06739731160133015,1.1645609109343316,0.08564456612308058,1.0,0.7869420636035783,3.396595609290487,6.010860484544695,7960983.586191999,10440853.36828875,-16069021.445176797,621638.5168059244,12205504.641802343,6717706.55258015,-5006529.560082122,6717706.55258015,9618686.297674464,12131977.505405942,112309358.70293699,112309358.70293699,9417382.366791375,9618686.297674464,9632054.867928354,9618686.297674464,9759056.285340317,9632054.867928354,9618686.297674464,9491684.8802625,0.04050676786928926,0.04017255361294199,1600217.8593907342,1588186.1461622324,3884546.473446602,1576869.8252337272,6477072.288010115,6477072.288010115,142716171.74541172,99863219.79656461,42852951.94884711,42017416.30797893,42017416.30797893,85946538.16226424,86006696.72840676,-18348362.673465185,-18348362.673465185,49904872.757774524,48561331.447258495,0.001376962736150757,19277.4783061106,149.60462951660156,2022-01-19,1,0,0,0,0,0,0,0,0,0,0,-20.290777010408192,0
151.6623107910156,153.7848358154297,151.5724853515625,139.03404235839844,150.97708664277653,153.28700682574478,151.5724853515625,139.03404235839844,19.142220411849564,16.215490494569842,23.54919701983559,-4.447923385312549,-5.179693921201517,0.7317705358889679,39.26957522792001,-155.33271986076798,-96.97302049517118,44.42148322885245,-7.741203145792763,3.534237191367091,2.4663519025485874,3.361593775794489,157.4312255388733,151.6623107910156,145.89339604315794,-12.409194946289062,-4.253707230020068,-6.374241755558899,100.0,21.42857142857143,-78.57142857142857,-0.41046928069408395,-0.011451693198901047,1.0228087026203316,0.9907562164489346,0.22445796287630634,0.06739731160133015,1.1645609109343316,0.08564456612308058,1.0,0.7869420636035783,3.396595609290487,6.010860484544695,8053206.43555944,10561803.90625008,-16255170.67261536,628839.7972351201,12346897.524207842,6795526.8410892,-5064526.96913016,6795526.8410892,9730112.56151976,12272518.6234596,113610390.03381169,113610390.03381169,9526476.654707579,9730112.56151976,9743635.99801944,9730112.56151976,9872108.6447664,9743635.99801944,9730112.56151976,9601639.914772801,0.0409760125940304,0.0406379266815384,1618755.3490116962,1606584.256161984,3929546.433615199,1595136.8429696795,6552104.984094961,6552104.984094961,144369446.35233384,101020070.6526096,43349375.69972424,42504160.91849424,42504160.91849424,86942173.25644273,87003028.72069128,-18560916.5958108,-18560916.5958108,50482988.453305446,49123883.085087605,0.00139291395946704,19500.79543253856,147.8914031982422,2022-01-20,1,0,0,0,0,0,0,0,0,0,0,-20.48633175650013,0
149.05453491210938,152.3142562866211,151.5724853515625,139.03404235839844,148.41744842754113,151.47085503871307,151.5724853515625,139.03404235839844,19.142220411849564,6.799026628451625,13.891589564818373,-4.447923385312549,-5.179693921201517,0.7317705358889679,39.26957522792001,-185.24599795449376,-97.5377670647185,44.42148322885245,-9.307231673205896,3.534237191367091,2.4663519025485874,5.121090866971741,155.7300792116333,149.05453491210938,142.37899061258545,-14.705795288085938,-4.253707230020068,-6.374241755558899,100.0,21.42857142857143,-78.57142857142857,-0.5384604373802966,-0.03105813523869838,1.0345722377528597,0.9817905265777976,0.22445796287630634,0.06739731160133015,1.1645609109343316,0.08564456612308058,1.0,0.7869420636035783,3.396595609290487,6.010860484544695,8311341.194389762,10900348.401038462,-16776208.422596969,648996.4156828278,12742660.806847781,7013348.363024107,-5226863.605875677,7013348.363024107,10041998.302877303,12665897.789939059,117252019.10003088,117252019.10003088,9831835.11949339,10041998.302877303,10055955.215042526,10041998.302877303,10188545.880612135,10055955.215042526,10041998.302877303,9909407.637307694,0.04228944386062297,0.041940521056492416,1670642.3861770858,1658081.165228386,4055502.7876551095,1646266.8205203835,6762123.944050109,6762123.944050109,148997015.81982857,104258133.8742091,44738881.94561945,43866574.93529307,43866574.93529307,89728988.31021291,89791794.4149564,-19155861.946767338,-19155861.946767338,52101153.11277411,50698483.44016929,0.0014375619530178766,20125.867342250272,143.2981719970703,2022-01-21,1,0,0,0,0,0,0,0,0,0,0,-15.894025772455436,0
147.20797729492188,151.1400146484375,151.5724853515625,139.03404235839844,146.80053609362116,150.03373801818,151.5724853515625,139.03404235839844,20.013174773805577,15.082281595357157,12.698932906126212,-4.447923385312549,-5.179693921201517,0.7317705358889679,39.26957522792001,-176.93603165549249,-79.07063129141392,44.42148322885245,-7.560673701278764,3.711084884759876,2.5849201725835806,6.010104898866075,153.8259036296847,147.20797729492188,140.59005096015906,-11.742416381835938,-4.253707230020068,-6.374241755558899,100.0,14.285714285714286,-85.71428571428572,0.7750394989278863,0.00187399060970872,1.0435190104062215,1.0335333251953125,0.22445796287630634,0.06739731160133015,1.1645609109343316,0.08564456612308058,1.0,0.7869420636035783,3.396595609290487,6.010860484544695,8295794.9525486175,10879959.459177952,-16744828.77071946,647782.4774030406,12718825.846644647,7000229.9977425365,-5217086.834138467,7000229.9977425365,10023214.89229006,12642206.413833534,117032700.91748267,117032700.91748267,9813444.816059198,10023214.89229006,10037145.698255716,10023214.89229006,10169488.354929455,10037145.698255716,10023214.89229006,9890872.235616319,0.042210342075940065,0.041862071926798645,1667517.4740891175,1654979.7487200263,4047917.0291535957,1643187.5025705756,6749475.490360714,6749475.490360714,148718319.08636904,104063120.56345621,44655198.52291284,43784523.15005928,43784523.15005928,89561151.55320749,89623840.18005295,-19120031.187863942,-19120031.187863942,52003698.66979679,50603652.670248285,0.001434873014462649,20088.22220247709,143.56671142578125,2022-01-24,1,0,0,0,0,0,0,0,0,0,0,-14.717373799898562,0
145.39290466308594,150.01022338867188,151.5724853515625,139.03404235839844,145.40155978832556,148.68280513809898,151.5724853515625,139.03404235839844,19.21382414652417,23.589085349001348,15.15679785760338,-4.447923385312549,-5.179693921201517,0.7317705358889679,39.26957522792001,-140.27286176915044,-82.75989632925622,44.42148322885245,-7.341001319639229,3.8329665492704366,2.687846840012405,5.417428187907717,151.01316717053137,145.39290466308594,139.7726421556405,-11.29791259765625,-4.253707230020068,-6.374241755558899,92.85714285714286,7.142857142857143,-85.71428571428572,0.3076933109015735,-0.006708409202120347,1.039059829591006,1.0118273409743246,0.22445796287630634,0.06739731160133015,1.1645609109343316,0.08564456612308058,1.0,0.7869420636035783,3.396595609290487,6.010860484544695,8351822.394756074,10953439.614281267,-16857918.586896393,652157.4162152099,12804725.182892185,7047507.562325655,-5252321.556399915,7047507.562325655,10090908.837996634,12727588.284200063,117823106.52954791,117823106.52954791,9879722.034268277,10090908.837996634,10104933.728667928,10090908.837996634,10238170.19004523,10104933.728667928,10090908.837996634,9957672.376619333,0.04249541873402335,0.04214479646724098,1678779.4133539917,1666157.0117498264,4075255.5107227196,1654285.124120154,6795059.530242347,6795059.530242347,149722720.36140803,104765933.31457242,44956787.046835594,44080231.37987967,44080231.37987967,90166022.12575449,90229134.13377532,-19249162.44635216,-19249162.44635216,52354916.875943616,50945415.36347849,0.0014445637391433679,20223.892348007153,142.60360717773438,2022-01-25,1,0,0,0,0,0,0,0,0,0,0,-13.196100440096858,0
143.90009155273438,148.59150238037108,151.5724853515625,139.03404235839844,144.3145611804983,147.49330674296166,151.5724853515625,139.03404235839844,18.824529553887775,32.869227468961974,23.846864804440163,-4.447923385312549,-5.179693921201517,0.7317705358889679,39.26957522792001,-110.22746158612193,-81.96123354923348,44.42148322885245,-9.075297188499043,3.8403078090934946,2.70176767417592,3.9357441867932437,148.01648095892702,143.90009155273438,139.78370214654174,-14.187210083007812,-4.253707230020068,-6.374241755558899,85.71428571428572,0.0,-85.71428571428572,-0.3294103285845601,-0.0032470652184380944,1.0279311244592084,0.9909613667635023,0.22445796287630634,0.06739731160133015,1.1645609109343316,0.08564456612308058,1.0,0.7869420636035783,3.396595609290487,6.010860484544695,8379029.650498469,10989122.010141568,-16912835.66733696,654281.9122555479,12846438.406221835,7070465.8259873735,-5269431.744939843,7070465.8259873735,10123781.416513264,12769050.223051824,118206932.14750233,118206932.14750233,9911906.641572531,10123781.416513264,10137851.995271448,10123781.416513264,10271522.493474193,10137851.995271448,10123781.416513264,9990110.918310517,0.04263385363729699,0.0422820891683424,1684248.277354604,1671584.7564722386,4088531.238301105,1659674.19447096,6817195.408340064,6817195.408340064,150210463.53299144,105107223.3236332,45103240.20935826,44223829.03697177,44223829.03697177,90459750.83636382,90523068.44077565,-19311869.345607303,-19311869.345607303,52525470.50430023,51111377.33910275,0.001449269612092934,20289.77456930108,142.14056396484375,2022-01-26,1,0,0,0,0,0,0,0,0,0,0,-13.109538648360486,0
142.73140869140624,147.19685974121094,151.5724853515625,139.03404235839844,143.5590370841994,146.5032489518053,151.5724853515625,139.03404235839844,18.742766804572362,34.377565783157756,30.278626200373697,-4.447923385312549,-5.179693921201517,0.7317705358889679,39.26957522792001,-92.49631507868706,-80.63633026515703,44.42148322885245,-8.940336976988728,3.8630004031893996,2.719503763011597,4.158004126436168,143.94843610055395,142.73140869140624,141.51438128225854,-13.946426391601562,-4.253707230020068,-6.374241755558899,78.57142857142857,0.0,-78.57142857142857,-0.41870881576308655,-0.0006512924295494216,1.0295395098234479,0.9878920278799405,0.22445796287630634,0.06739731160133015,1.1645609109343316,0.08564456612308058,1.0,0.7869420636035783,3.396595609290487,6.010860484544695,8384490.405625283,10996283.806537945,-16923858.047962368,654708.3188271631,12854810.647079568,7075073.767970956,-5272865.92259726,7075073.767970956,10130379.255831052,12777372.028723666,118283969.6014408,118283969.6014408,9918366.398521386,10130379.255831052,10144459.004623033,10130379.255831052,10278216.618146861,10144459.004623033,10130379.255831052,9996621.642307222,0.04266163883970547,0.04230964511990592,1685345.9304002456,1672674.1564874619,4091195.803155504,1660755.8321717833,6821638.28971528,6821638.28971528,150308358.22880387,105175723.47610556,45132634.75269831,44252650.45319943,44252650.45319943,90518704.9836523,90582063.85321622,-19324455.2169953,-19324455.2169953,52559702.240468815,51144687.486874625,0.0014502141255741462,20302.997758038047,142.04798889160156,2022-01-27,1,0,0,0,0,0,0,0,0,0,0,-15.350140188416756,0
142.74808044433593,145.90130767822265,151.5724853515625,139.03404235839844,143.49986831003918,145.935663826335,151.5724853515625,139.03404235839844,23.872228011019097,50.15572011777886,39.13417112329953,-4.447923385312549,-5.179693921201517,0.7317705358889679,39.26957522792001,-85.48929417517937,-74.09078213670986,44.42148322885245,-8.286916322498062,3.8939937760718917,2.715826616848719,4.296907623544286,143.99755808502235,142.74808044433593,141.4986028036495,-12.955520629882812,-4.253707230020068,-6.374241755558899,71.42857142857143,28.571428571428573,-42.85714285714286,0.35344819081381024,0.009387967267419972,1.030881859498492,1.0107056554834621,0.22445796287630634,0.06739731160133015,1.1645609109343316,0.08564456612308058,1.0,0.7869420636035783,3.396595609290487,6.010860484544695,8306509.1694360925,10894011.186111819,-16766455.116141366,648619.1039106268,12735252.513341986,7009270.961614839,-5223824.82611892,7009270.961614839,10036160.113197764,12658534.124707395,117183851.43985325,117183851.43985325,9826119.11391419,10036160.113197764,10050108.911131326,10036160.113197764,10182622.491500163,10050108.911131326,10036160.113197764,9903646.532828927,0.04226485773869246,0.041916137790353414,1669671.1126473558,1657117.19450715,4053145.0104671326,1645309.718390763,6758192.598810725,6758192.598810725,148910392.33973974,104197520.56370716,44712871.77603257,43841071.905184954,43841071.905184954,89676821.91486925,89739591.50557028,-19144725.163813666,-19144725.163813666,52070862.68598646,50669008.49366349,0.0014367261871568724,20114.166620196214,143.38153076171875,2022-01-28,1,0,0,0,0,0,0,0,0,0,0,-18.367877197112335,0
142.96478271484375,145.0863800048828,150.82052841186524,139.03404235839844,143.88331979946622,145.7019472721505,150.91322224934896,139.03404235839844,28.496778870766715,71.2617118290218,51.931665909986144,-4.447923385312549,-5.179693921201517,0.7317705358889679,39.26957522792001,-53.160265301797175,-67.86354260195684,44.42148322885245,-5.333313760476965,3.8394284939338155,2.654284535612382,3.130079826138825,144.89655544949585,142.96478271484375,141.03300998019165,-8.149276733398438,-4.253707230020068,-6.374241755558899,64.28571428571429,21.42857142857143,-42.85714285714286,0.7692269493300574,0.008848364289749222,1.0220713392731082,1.016927023056069,0.22445796287630634,0.06739731160133015,1.1645609109343316,0.08564456612308058,1.0,0.7869420636035783,3.396595609290487,6.010860484544695,8233654.792396925,10798462.456527287,-16619400.60530832,642930.223083891,12623554.702700913,6947794.346229144,-5178007.925697143,6947794.346229144,9948135.387287302,12547509.192443678,116156060.30382296,116156060.30382296,9739936.606659405,9948135.387287302,9961961.843697708,9948135.387287302,10093313.179596568,9961961.843697708,9948135.387287302,9816784.051388443,0.04189416292353095,0.0415485015132708,1655026.832325629,1642583.0215562633,4017595.858740013,1630879.1059487876,6698918.130841832,6698918.130841832,147604335.40929198,103283629.38573474,44320706.02355725,43456552.49790686,43456552.49790686,88890288.26250182,88952507.31634866,-18976811.423282586,-18976811.423282586,51614161.78004655,50224602.910800725,0.0014241250102718444,19937.75014380582,144.6502227783203,2022-01-31,1,0,0,0,0,0,0,0,0,0,0,-16.699445146346488,0
143.58709411621095,144.48999938964843,150.20701370239257,139.03404235839844,144.49393459450093,145.70435034713591,150.41816910032242,139.03404235839844,32.218889766584205,89.33572384301537,70.25105192993868,-4.447923385312549,-5.179693921201517,0.7317705358889679,39.26957522792001,-28.389659737875473,-62.636391220521006,44.42148322885245,-3.931860915917851,3.7245980396087703,2.5560812839568317,2.2318021333831837,146.43840615553194,143.58709411621095,140.73578207688996,-5.96380615234375,-4.253707230020068,-6.374241755558899,57.142857142857146,14.285714285714286,-42.85714285714286,0.4315381595775593,0.007362182966576203,1.0155193751452405,1.0066534998475194,0.22445796287630634,0.06739731160133015,1.1645609109343316,0.08564456612308058,1.0,0.7869420636035783,3.396595609290487,6.010860484544695,8173480.136160834,10719543.21803797,-16497939.754265863,638231.4464004681,12531297.00136833,6897017.243359897,-5140165.089827426,6897017.243359897,9875430.659895414,12455807.260396233,115307147.9830179,115307147.9830179,9668753.474521259,9875430.659895414,9889156.067344887,9875430.659895414,10019547.438114876,9889156.067344887,9875430.659895414,9745039.289125428,0.04158798457190147,0.04124484938566466,1642931.2717018502,1630578.404997325,3988233.7521432596,1618960.0260216435,6649959.909269393,6649959.909269393,146525587.22684297,102528793.64755908,43996793.579283886,43138955.61369186,43138955.61369186,88240644.49265827,88302408.82618089,-18838121.724400915,-18838121.724400915,51236946.00888059,49857542.56020861,0.0014137169672956604,19792.03754213925,145.7151641845703,2022-02-01,1,0,0,0,0,0,0,0,0,0,0,-16.517108746774337,0
144.35202026367188,144.1260559082031,149.57590560913087,139.03404235839844,144.98435463038342,145.75177659350183,149.99407630049632,139.03404235839844,33.099422606074384,91.18554053135544,83.92765873446422,-4.447923385312549,-5.179693921201517,0.7317705358889679,39.26957522792001,-9.67771876853573,-61.409143075515736,44.42148322885245,-2.432702000073639,3.6708875453352876,2.514906072523641,2.9726511197800107,147.29138458878128,144.35202026367188,141.41265593856247,-3.639434814453125,-4.253707230020068,-6.374241755558899,50.0,7.142857142857143,-42.85714285714286,-0.043613425804889354,0.0017158853642811334,1.0205875240608264,0.9991125799028703,0.22445796287630634,0.06739731160133015,1.1645609109343316,0.08564456612308058,1.0,0.7869420636035783,3.396595609290487,6.010860484544695,8159479.404869865,10701181.217805818,-16469679.671962345,637138.1903046997,12509831.564477222,6885203.024260465,-5131360.263851829,6885203.024260465,9858514.57901573,12434471.133365914,115109633.04838242,115109633.04838242,9652191.420529533,9858514.57901573,9872216.475581422,9858514.57901573,10002384.4929555,9872216.475581422,9858514.57901573,9728346.561641652,0.04151674659404817,0.04117419917990586,1640117.0189133883,1627785.3120042651,3981402.122511924,1616186.8346860618,6638568.886078,6638568.886078,146274596.78704995,102353167.34572273,43921429.44132721,43065060.90597142,43065060.90597142,88089493.02083687,88151151.55538249,-18805853.03641291,-18805853.03641291,51149179.87972998,49772139.27487789,0.0014112953462663241,19758.13484772854,145.96519470214844,2022-02-02,1,0,0,0,0,0,0,0,0,0,0,-18.48168639370268,0
144.9724853515625,143.85194702148436,148.81839141845703,139.03404235839844,145.0396745306072,145.64241981851143,149.53276563673998,139.03404235839844,31.656047888677268,83.71233772473308,88.07786736636797,-4.447923385312549,-5.179693921201517,0.7317705358889679,39.26957522792001,-1.145174249485016,-59.820252634784566,44.42148322885245,-1.8534470617694976,3.6256433389513076,2.4978542799997276,3.0374686559595716,146.8063133746294,144.9724853515625,143.1386573284956,-2.7410888671875,-4.253707230020068,-6.374241755558899,42.85714285714286,0.0,-42.85714285714286,0.10975632449129995,-0.005582703279069845,1.0210418185562844,1.0023020884966807,0.22445796287630634,0.06739731160133015,1.1645609109343316,0.08564456612308058,1.0,0.7869420636035783,3.396595609290487,6.010860484544695,8205287.088001761,10761258.128848657,-16562141.1919028,640715.1126651249,12580062.319639979,6923856.862671511,-5160167.950389016,6923856.862671511,9913860.721775427,12504278.811690342,115755863.6881659,115755863.6881659,9706379.255828945,9913860.721775427,9927639.541402634,9913860.721775427,10058538.3278611,9927639.541402634,9913860.721775427,9782961.935316961,0.04174982347043717,0.041405352979757,1649324.7093766765,1636923.77171219,4003753.8924961505,1625260.1800224145,6675838.109381786,6675838.109381786,147095788.9302482,102927782.6152362,44168006.315012,43306830.08831156,43306830.08831156,88584031.38331372,88646036.07163616,-18911429.93834159,-18911429.93834159,51436333.66836368,50051562.295829386,0.0014192184216023195,19869.057902432476,145.1503143310547,2022-02-03,1,0,0,0,0,0,0,0,0,0,0,-16.102571008405615,0
144.63169555664064,143.68988800048828,148.0020721435547,139.03404235839844,143.91897694944126,144.92154017643833,148.78465288915612,139.03404235839844,26.377094828867037,55.34142240420129,76.74643355342994,-4.447923385312549,-5.179693921201517,0.7317705358889679,39.26957522792001,-65.92179967243882,-76.08414315439431,44.42148322885245,-1.1309217608121869,3.661024834765565,2.584053728603847,4.1209842803509105,147.72339037899388,144.63169555664064,141.5400007342874,-1.6205902099609375,-4.253707230020068,-6.374241755558899,35.714285714285715,0.0,-35.714285714285715,-0.6165775253094219,-0.023925077668277117,1.0253463837449852,0.9846817937901825,0.22445796287630634,0.06739731160133015,1.1645609109343316,0.08564456612308058,1.0,0.7869420636035783,3.396595609290487,6.010860484544695,8406411.12712981,11025032.89720971,-16968104.407741446,656420.0124459045,12888418.738991631,7093571.102238001,-5286651.498085834,7093571.102238001,10156864.493652223,12810777.662250718,118593215.58189343,118593215.58189343,9944297.342095008,10156864.493652223,10170981.053059662,10156864.493652223,10305088.36743033,10170981.053059662,10156864.493652223,10022757.179281553,0.04277317500453959,0.04242026101935362,1689752.1610704253,1677047.2576037303,4101891.9766237563,1665097.7735806059,6839473.0329041025,6839473.0329041025,150701329.954113,105450698.7735679,45250631.1805451,44368346.21758018,44368346.21758018,90755360.4304241,90818884.94775757,-19374977.786709763,-19374977.786709763,52697116.26796907,51278402.04752147,0.001454005618966197,20356.078665526762,141.67758178710938,2022-02-04,1,0,0,0,0,0,0,0,0,0,0,-12.58938897242881,0
144.00752868652344,143.48615570068358,147.31308517456054,139.03404235839844,143.12244744220564,144.3047853130376,148.09367532140166,139.03404235839844,26.176488521998202,30.296320792775347,56.45002697390324,-4.447923385312549,-5.179693921201517,0.7317705358889679,39.26957522792001,-69.9844736896119,-77.0756293489821,44.42148322885245,-1.4190775687580537,3.555629957905727,2.5122909082033162,2.1854965587278343,147.9697771339166,144.00752868652344,140.04528023913028,-2.037322998046875,-4.253707230020068,-6.374241755558899,28.571428571428573,7.142857142857143,-21.42857142857143,0.0381340316167127,-0.0010459901807025052,1.0154804897185588,1.000589212613945,0.22445796287630634,0.06739731160133015,1.1645609109343316,0.08564456612308058,1.0,0.7869420636035783,3.396595609290487,6.010860484544695,8415213.35767045,11036577.048430935,-16985871.4625019,657107.3402714961,12901914.014362924,7100998.677127458,-5292187.073799469,7100998.677127458,10167499.59839444,12824191.640782425,118717392.8090503,118717392.8090503,9954709.870871684,10167499.59839444,10181630.93904544,10167499.59839444,10315878.675229939,10181630.93904544,10167499.59839444,10033251.86220994,0.04281796217252975,0.04246467865625475,1691521.47592469,1678803.26933879,4106187.007914163,1666841.2731851472,6846634.54540946,6846634.54540946,150859127.1197496,105561114.66296938,45298012.45678023,44414803.66609274,44414803.66609274,90850389.04527846,90913980.07820797,-19395265.043497387,-19395265.043497387,52752294.65018269,51332094.9147572,0.0014555280870529913,20377.39321874188,141.52938842773438,2022-02-07,1,0,0,0,0,0,0,0,0,0,0,-9.78496582848801,0
143.43337707519532,143.51023559570314,146.7602294921875,139.03404235839844,143.02976700411367,144.03926182483616,147.59374492202338,139.03404235839844,31.178334766772497,15.526387631096233,33.72137694269096,-4.447923385312549,-5.179693921201517,0.7317705358889679,39.26957522792001,-46.69260260606906,-62.49072830793712,44.42148322885245,0.16885894751259567,3.4187380723979754,2.3933300330544243,1.6391435607972085,147.05694997240624,143.43337707519532,139.8098041779844,0.2407989501953125,-3.8632942742125143,-5.764172676282044,21.42857142857143,0.0,-21.42857142857143,0.30813860648319435,0.00929148154177728,1.011250661733178,1.0034478192498575,0.22445796287630634,0.06739731160133015,1.1645609109343316,0.08564456612308058,1.0,0.7869420636035783,3.396595609290487,6.010860484544695,8337743.369056784,10934974.930702517,-16829500.469531912,651058.0464502778,12783139.70772266,7035627.276156228,-5243467.49237912,7035627.276156228,10073898.159590859,12706132.842013488,117624487.05868353,117624487.05868353,9863067.362527454,10073898.159590859,10087899.407901617,10073898.159590859,10220911.266853824,10087899.407901617,10073898.159590859,9940886.300638651,0.042423782381598746,0.04207375117382978,1675949.422797812,1663348.2993181292,4068385.677486962,1651496.4246393,6783604.806562573,6783604.806562573,149470326.3415041,104589324.88136722,44881001.4601369,44005923.44071448,44005923.44071448,90014025.38986744,90077031.00726587,-19216713.306516264,-19216713.306516264,52266659.94406209,50859534.48883084,0.0014421285760081422,20189.80006411399,142.8444061279297,2022-02-08,1,0,0,0,0,0,0,0,0,0,0,-14.370752995449093,0
143.31670227050782,143.83436126708983,146.21293182373046,139.03404235839844,143.81378489564608,144.28336343463158,147.38308547027933,139.03404235839844,39.67206750189051,34.93440440947568,26.919037611115755,-4.447923385312549,-5.179693921201517,0.7317705358889679,39.26957522792001,82.62185062957505,-24.20417082692846,44.42148322885245,2.2803178933980206,3.38158367661669,2.3260017386148157,2.8985765314599803,146.63104897614252,143.31670227050782,140.0023555648731,3.2412567138671875,-3.448224459206538,-5.128158275897675,14.285714285714286,0.0,-14.285714285714286,0.5870979809216186,0.017763485596410167,1.009946756295609,1.0058303668082627,0.22445796287630634,0.06739731160133015,1.1645609109343316,0.08564456612308058,1.0,0.7869420636035783,3.396595609290487,6.010860484544695,8192220.969856135,10744121.876503175,-16535767.599944709,639694.836437129,12560029.799292445,6912831.296981877,-5151950.887004404,6912831.296981877,9898073.867021812,12484366.969176225,115571533.78297463,115571533.78297463,9690922.795041805,9898073.867021812,9911830.74522476,9898073.867021812,10042521.088152777,9911830.74522476,9898073.867021812,9767383.524093796,0.0416833409549355,0.04133941899986177,1646698.3208929964,1634317.1305103423,3997378.30553322,1622672.1119509626,6665207.489328795,6665207.489328795,146861553.25558215,102763880.1760291,44097673.079553045,43237868.19186874,43237868.19186874,88442969.96675918,88504875.91867244,-18881315.333547514,-18881315.333547514,51354426.33160865,49971860.07221228,0.0014169584549037478,19837.41836865247,145.38182067871094,2022-02-09,1,0,0,0,0,0,0,0,0,0,0,-17.809259758580808,0
142.77402038574218,143.87325286865234,145.53505630493163,139.03404235839844,143.35482489950624,143.94764370237613,146.91202065475048,139.03404235839844,34.37027679570291,41.946672412507404,30.802488151026438,-4.447923385312549,-5.179693921201517,0.7317705358889679,38.610649178787966,0.03328458315047883,-53.3404045650131,44.42148322885245,0.27379199005892474,3.4383654468030898,2.413956866756267,4.17652845922629,145.55546025430715,142.77402038574218,139.9925805171772,0.388916015625,-3.0526340899515345,-4.520878914075013,7.142857142857143,0.0,-7.142857142857143,-0.4345903480755645,-0.020256423793127087,1.0294694848632986,0.9874173033311415,0.22445796287630634,0.06739731160133015,1.1645609109343316,0.08564456612308058,1.0,0.7869420636035783,3.396595609290487,6.010860484544695,8361597.022736025,10966259.06760174,-16877648.398536865,652920.6743194377,12819711.304379499,7055755.67409715,-5258468.656615687,7055755.67409715,10102718.820921192,12742484.127847092,117961001.82704508,117961001.82704508,9891284.852880288,10102718.820921192,10116760.125745267,10102718.820921192,10250152.521573968,10116760.125745267,10102718.820921192,9969326.42509249,0.042545153616944005,0.042194120996342156,1680744.1874416494,1668107.0130999829,4080025.021454362,1656221.231103367,6803012.187263819,6803012.187263819,149897949.64940125,104888547.03583226,45009402.613568984,44131821.062064365,44131821.062064365,90271548.7139713,90334734.58567964,-19271690.87104147,-19271690.87104147,52416190.90826798,51005039.77344855,0.0014462543968796148,20247.561556314606,142.43690490722656,2022-02-10,1,0,0,0,0,0,0,0,0,0,0,-16.6344983178437,0
142.20171203613282,143.4167037963867,144.65900573730468,139.03404235839844,141.84189661269167,143.0146248545009,146.14097488182782,139.03404235839844,29.202720872866,32.824331508146486,36.56846944337652,-4.447923385312549,-5.179693921201517,0.7317705358889679,38.62206746656549,-143.34097167831072,-98.61544851169366,36.25670243851985,-3.184155377894171,3.5188730357804343,2.534918180053423,4.5654716924859144,146.44399974603522,142.20171203613282,137.95942432623042,-4.56549072265625,-2.6967869774873376,-3.9715934166541444,0.0,57.142857142857146,57.142857142857146,-0.6653130832299078,-0.025420833670335985,1.0329084040779195,0.9785872898803482,0.22445796287630634,0.06739731160133015,1.1645609109343316,0.08564456612308058,1.0,0.7869420636035783,3.396595609290487,6.010860484544695,8579700.153273754,11252301.964243159,-17317883.432804454,669951.3973589077,13154099.47932651,7239797.358555938,-5395630.071202385,7239797.358555938,10366237.212897507,13074857.916198038,121037885.78950933,121037885.78950933,10149288.220608681,10366237.212897507,10380644.769829957,10366237.212897507,10517516.560688227,10380644.769829957,10366237.212897507,10229365.422039235,0.04365489750532237,0.04329470858201113,1724584.5648142204,1711617.7635750158,4186448.020246557,1699421.9539299372,6980461.333771844,6980461.333771844,153807874.032366,107624450.28539872,46183423.74696728,45282951.43868918,45282951.43868918,92626183.51871866,92691017.52491468,-19774371.889787115,-19774371.889787115,53783410.02883446,52335450.55712327,0.0014839783640423117,20775.697096592365,138.8160400390625,2022-02-11,1,0,0,0,0,0,0,0,0,0,0,-15.872896443046445,0
141.5423583984375,142.77494354248046,143.93066177368163,139.03404235839844,140.6388044882137,142.14516946991125,145.3877982492021,139.03404235839844,28.460225048459233,14.543187493897795,29.771397138183897,-4.447923385312549,-5.179693921201517,0.7317705358889679,38.94355844374102,-199.95159085824483,-88.38250831657578,37.17567554534334,-4.436635088283014,3.4315691663476353,2.4824597554529144,2.2966188637212497,146.88083689530478,141.5423583984375,136.20387990157022,-6.4176025390625,-2.4087662413432165,-3.529104379507203,100.0,50.0,-50.0,-0.12499923090648325,-0.004202826990602149,1.01676012507319,0.9979275467656172,0.22445796287630634,0.06739731160133015,1.1645609109343316,0.08564456612308058,1.0,0.7869420636035783,3.396595609290487,6.010860484544695,8615911.33799371,11299793.039417442,-17390974.690627098,672778.9709768387,13209617.21509363,7270353.396040032,-5418402.680232819,7270353.396040032,10409988.593931945,13130041.207773788,121548734.08981553,121548734.08981553,10192123.954255188,10409988.593931945,10424456.958899189,10409988.593931945,10561906.426088005,10424456.958899189,10409988.593931945,10272539.126743129,0.04383914585074884,0.043477436726567745,1731863.286579088,1718841.7581085686,4204117.197475763,1706594.4752525412,7009922.826629642,7009922.826629642,154457030.20781165,108078686.30531152,46378343.90250014,45474071.0920474,45474071.0920474,93017118.37441067,93082226.01676327,-19857830.917542174,-19857830.917542174,54010406.42272127,52556335.743513264,0.0014902415916261157,20863.382282765622,138.2326202392578,2022-02-14,1,0,0,0,0,0,0,0,0,0,0,-16.017798676330937,0
141.05895385742187,142.24616546630858,143.36808242797852,139.03404235839844,140.56833079975965,141.83284473408222,144.91537778954967,139.03404235839844,35.1410737805208,17.680617851256336,21.68271228443354,-4.447923385312549,-5.179693921201517,0.7317705358889679,38.28593893430517,-87.90912164142804,-67.20291240652281,42.950802457907905,-3.6288472729035792,3.4285550366932886,2.441514577231213,3.3893713511867816,146.27459433443573,141.05895385742187,135.843313380408,-5.28778076171875,-2.194697521627497,-3.202908540383362,92.85714285714286,42.85714285714286,-50.0,-0.060467559012638145,0.015877317378452105,1.0142591452042085,0.9991434085843531,0.22445796287630634,0.06739731160133015,1.1645609109343316,0.08564456612308058,1.0,0.7869420636035783,3.396595609290487,6.010860484544695,8481251.81122039,11123186.674329344,-17119168.22348767,662263.9953345896,13003161.88689205,7156723.820551211,-5333717.553823738,7156723.820551211,10247289.13211263,12924829.586368605,119649028.4904492,119649028.4904492,10032829.535515893,10247289.13211263,10261531.368571438,10247289.13211263,10396832.614930118,10261531.368571438,10247289.13211263,10111987.88575395,0.04315397647018939,0.04279792055871918,1704795.704119363,1691977.6913064355,4138410.3430174063,1679921.8232931283,6900363.56429266,6900363.56429266,152042995.31600887,106389506.34729859,45653488.96871026,44763349.19003474,44763349.19003474,91563338.19367908,91627428.25774372,-19547469.5397145,-19547469.5397145,53166268.70073168,51734923.93662144,0.0014669503552572631,20537.304973601684,140.42738342285156,2022-02-15,1,0,0,0,0,0,0,0,0,0,0,-17.98214374388313,0
140.11065673828125,141.71367950439452,142.91986770629882,139.03404235839844,140.59233222750905,141.61602479752324,144.5082308651171,139.03404235839844,35.76785295083798,30.862866537379464,21.0288906275112,-4.447923385312549,-5.179693921201517,0.7317705358889679,37.761442483217316,-82.3443922389619,-65.14791615717843,46.92296329052104,-3.6480337864148726,3.3291813545533175,2.367159714592823,2.0373234867336976,143.07651027137007,140.11065673828125,137.14480320519243,-5.324859619140625,-2.0814498730245283,-3.027020283234407,85.71428571428572,35.714285714285715,-50.0,0.05908627470019117,0.0015164539491205886,1.0146325032187062,1.000856660203754,0.22445796287630634,0.06739731160133015,1.1645609109343316,0.08564456612308058,1.0,0.7869420636035783,3.396595609290487,6.010860484544695,8468409.857648987,11106344.41448171,-17093247.101417433,661261.2231413566,12983473.047915239,7145887.411366274,-5325641.463794367,7145887.411366274,10231773.119359272,12905259.35485551,119467860.98087177,119467860.98087177,10017638.248433195,10231773.119359272,10245993.790824676,10231773.119359272,10381090.16974603,10245993.790824676,10231773.119359272,10096676.74043792,0.04308863454017872,0.04273311775354358,1702214.3744090407,1689415.7700901758,4132144.1367229377,1677378.156563439,6889915.324988974,6889915.324988974,151812778.2289366,106228415.84657922,45584362.382357396,44695570.41576955,44695570.41576955,91424696.85109209,91488689.87268642,-19517871.586269077,-19517871.586269077,53085766.5803588,51656589.09808555,0.0014647291609367684,20506.20825311476,140.6403350830078,2022-02-16,1,0,0,0,0,0,0,0,0,0,0,-18.74384358042553,0
139.33671875,141.05536956787108,142.45365829467772,139.03404235839844,139.91729314027947,141.06169573721363,143.94241982708883,139.03404235839844,32.477410395824904,34.51929922191177,27.68759453684919,-4.447923385312549,-5.179693921201517,0.7317705358889679,37.4737487850705,-111.9179437645687,-85.15364920539609,41.24715093093126,-4.535366937077267,3.256728630596599,2.3502880038398115,2.3148432191592576,141.33095863278757,139.33671875,137.3424788672124,-6.583099365234375,-2.0308661138038118,-2.939584291898285,78.57142857142857,28.571428571428573,-50.0,-0.5149993896484416,-0.01474058004742318,1.013441764165913,0.9931370018208265,0.22445796287630634,0.06739731160133015,1.1645609109343316,0.08564456612308058,1.0,0.7869420636035783,3.396595609290487,6.010860484544695,8595106.716215506,11272507.716816641,-17348981.146752372,671154.4287221177,13177720.288672976,7252797.858771271,-5405319.001213614,7252797.858771271,10384851.859474488,13098336.431512296,121255233.45579591,121255233.45579591,10167513.291997118,10384851.859474488,10399285.288049156,10384851.859474488,10536402.859508513,10399285.288049156,10384851.859474488,10247734.288015129,0.04373328858124766,0.043372452866880934,1727681.4003879027,1714691.3146707006,4193965.6227004956,1702473.6050168145,6992996.144427226,6992996.144427226,154084066.748881,107817711.45277889,46266355.29610211,45364266.01018529,45364266.01018529,92792512.30654827,92857462.73513427,-19809880.71873347,-19809880.71873347,53879988.86924011,52429429.29748586,0.0014866431431909272,20813.00400467298,138.5672149658203,2022-02-17,1,0,0,0,0,0,0,0,0,0,0,-18.802042606760526,0
139.3966522216797,140.79918212890624,142.24453506469726,139.03404235839844,139.6500978926733,140.7078796754404,143.48273292902903,139.03404235839844,34.20207440497333,36.89475200728888,34.09230592219337,-4.28216778291997,-5.000188693545208,0.7180209106252375,37.21082237077986,-91.58487897176629,-79.86066445482764,36.77845606092849,-1.8082426007934083,3.1416411837931073,2.2582936481911937,1.6455043753477128,141.3421126772828,139.3966522216797,137.45119176607656,-2.5618743896484375,-1.9856140677159517,-2.861193828093718,71.42857142857143,21.42857142857143,-50.0,0.163839031707438,0.003958313167915728,1.011897485802516,1.0019417025395487,0.22445796287630634,0.06739731160133015,1.1645609109343316,0.08564456612308058,1.0,0.7869420636035783,3.396595609290487,6.010860484544695,8561218.731377687,11228063.525114985,-17280579.202545725,668508.2636592148,13125764.402599208,7224202.204059257,-5384007.413771526,7224202.204059257,10343907.434468927,13046693.532704031,120777159.63443148,120777159.63443148,10127425.769217733,10343907.434468927,10358283.95626805,10343907.434468927,10494860.913359717,10358283.95626805,10343907.434468927,10207330.477377258,0.04356086105134238,0.043201448006364315,1720869.659355011,1707930.7897358006,4177430.046340021,1695761.2509276264,6965424.811675045,6965424.811675045,153476558.46653652,107392617.83944806,46083940.62708846,45185408.014643274,45185408.014643274,92426658.64656112,92491352.99465717,-19731776.16929618,-19731776.16929618,53667555.87612578,52222715.43531393,0.0014807817453096586,20730.944434335222,139.11570739746094,2022-02-18,1,0,0,0,0,0,0,0,0,0,0,-16.530767996400606,0
139.02105102539062,140.28170471191407,141.88393020629883,139.03404235839844,138.5516033477197,139.91637687223533,142.80386448415126,139.03404235839844,30.042182954730446,28.908341929867067,33.440797719689236,-4.323760791810315,-4.864903113198229,0.5411423213879143,37.602972346393145,-131.1394598758665,-91.2386600087798,36.463947740086645,-3.656324829358071,3.202116086237557,2.348373836607506,3.988289818015403,142.10969651552367,139.02105102539062,135.93240553525757,-5.174774169921875,-1.9714369486546997,-2.8256135598207095,100.0,14.285714285714286,-85.71428571428572,-0.7342664058331869,-0.019847457855782236,1.029478517013031,0.9789747096430408,0.22445796287630634,0.06739731160133015,1.1645609109343316,0.08564456612308058,1.0,0.7869420636035783,3.396595609290487,6.010860484544695,8734577.898098238,11455424.581720779,-17630499.804389726,682045.125544195,13391552.680039784,7370487.647009849,-5493030.097124753,7370487.647009849,10553364.899549425,13310880.675943159,123222819.34831789,123222819.34831789,10332499.619969973,10553364.899549425,10568032.536657901,10553364.899549425,10707375.089188436,10568032.536657901,10553364.899549425,10414022.34701889,0.04444294043868625,0.044076249510974316,1755716.1618847342,1742515.2884871045,4262020.314920901,1730099.324354061,7106470.179057257,7106470.179057257,156584359.95154953,109567249.2003255,47017110.75122402,46100383.431944184,46100383.431944184,94298238.97040063,94364243.33738878,-20131331.931385107,-20131331.931385107,54754289.3259458,53280191.79654383,0.001510766622173163,21150.732710424283,136.3546142578125,2022-02-22,1,0,0,0,0,0,0,0,0,0,0,-18.107759326849994,0
137.0797332763672,139.06934356689453,141.28978958129883,139.03404235839844,135.94133379105793,138.24445283687152,141.65309593115919,139.03404235839844,23.706383551298384,22.743364015041507,29.51548598406582,-4.756495784744203,-4.843221647507424,0.08672586276322125,38.79268040395775,-211.63299403475594,-96.08827317076418,33.893550398867575,-8.487284716867071,3.478735194855735,2.66119495634329,7.074783606892055,144.00779651602772,137.0797332763672,130.15167003670666,-12.123611450195312,-2.028024954371891,-2.889498197115387,100.0,7.142857142857143,-92.85714285714286,-0.8672806273547395,-0.04131741056760996,1.0544037771283106,0.9551660498437168,0.22445796287630634,0.06739731160133015,1.1645609109343316,0.08564456612308058,1.0,0.7869420636035783,3.396595609290487,6.010860484544695,9111021.72333154,11949131.764772348,-18390341.077152833,711439.9834339491,13968703.330649365,7688141.756463643,-5729769.328946536,7688141.756463643,11008195.01248874,13884554.515404489,128533490.34040013,128533490.34040013,10777810.85613286,11008195.01248874,11023494.797078716,11008195.01248874,11168842.750683501,11023494.797078716,11008195.01248874,10862847.058883954,0.04635834730763152,0.04597585269288208,1831384.2154202948,1817614.409289315,4445705.348048855,1804663.340531099,7412745.63384405,7412745.63384405,163332850.39030373,114289390.88713117,49043459.503172554,48087222.96629897,48087222.96629897,98362315.12896469,98431164.1596196,-20998954.34974398,-20998954.34974398,57114095.87438563,55576467.5230929,0.001575877812767672,22062.28937874741,130.72079467773438,2022-02-23,1,0,0,0,0,0,0,0,0,0,0,-12.356363163508743,0
134.5566192626953,137.3336380004883,140.58399963378906,139.03404235839844,133.30247753225476,136.3863277782855,140.35515965339627,139.03404235839844,21.38240122320827,14.017977412327218,21.889894452411934,-5.256395985554036,-4.925856515116747,-0.33053947043728904,40.44961053709818,-249.0036823733299,-86.03892469297413,36.13869622241516,-11.9389450366157,3.630011789030632,2.835398126772809,5.596607513304292,143.38754757998046,134.5566192626953,125.72569094541015,-17.3570556640625,-2.1933572171162408,-3.1051063537597656,100.0,0.0,-100.0,0.048346579592095734,-0.020624336546702038,1.0291998517089187,1.0013816349294886,0.22445796287630634,0.06739731160133015,1.1645609109343316,0.08564456612308058,1.0,0.7869420636035783,3.396595609290487,6.010860484544695,9302887.608219607,12200764.43664066,-18777616.969067954,726421.9542942262,14262865.46818556,7850043.699631155,-5850430.578133069,7850043.699631155,11240012.819670876,14176944.591871189,131240233.07582355,131240233.07582355,11004777.08229964,11240012.819670876,11255634.79718258,11240012.819670876,11404043.583543766,11255634.79718258,11240012.819670876,11091604.03330969,0.04733459186046248,0.046944042422669884,1869950.7081509437,1855890.9283904103,4539325.933802776,1842667.1275124606,7568848.104420486,7568848.104420486,166772420.9261938,116696172.01242732,50076248.913766496,49099875.31928501,49099875.31928501,100433693.42274366,100503992.32154633,-21441164.13481345,-21441164.13481345,58316842.05119025,56746833.311264016,0.0016090636837054902,22526.891571876866,128.02476501464844,2022-02-24,1,0,0,0,0,0,0,0,0,0,0,-12.691950912912874,0
133.0765869140625,136.20665283203124,140.0399528503418,139.03404235839844,132.59066942905525,135.4373687681711,139.4801018980877,139.03404235839844,29.99620778137085,22.018716473043614,19.593352633470783,-5.337486872893834,-5.008182586672165,-0.3293042862216691,40.876233825560014,-144.57708942597287,-70.914447925328,40.939859461045494,-7.9121711412577405,3.6688838572464566,2.797107785152817,4.174220744052178,141.17268078516608,133.0765869140625,124.98049304295888,-11.269851684570312,-2.391802528596131,-3.369081546098755,92.85714285714286,28.571428571428573,-64.28571428571429,0.5501109574283736,0.024544377860395095,1.032745082067183,1.0178185060431941,0.22445796287630634,0.06739731160133015,1.1645609109343316,0.08564456612308058,1.0,0.7869420636035783,3.396595609290487,6.010860484544695,9080024.066548754,11908478.246808693,-18327773.178827208,709019.5114937314,13921178.795565091,7661985.043561291,-5710275.4205247825,7661985.043561291,10970742.76386537,13837316.27270024,128096191.74320081,128096191.74320081,10741142.42399284,10970742.76386537,10985990.495295344,10970742.76386537,11130843.943880085,10985990.495295344,10970742.76386537,10825889.31528063,0.04620062623281733,0.045819432947068015,1825153.4521677343,1811430.493880759,4430580.1016472,1798523.4874457957,7387525.877821782,7387525.877821782,162777156.88067377,113900553.7818962,48876603.09877755,47923619.88440425,47923619.88440425,98027665.3632946,98096280.15472949,-20927511.387637556,-20927511.387637556,56919781.42808816,55387384.4193759,0.0015705163372871898,21987.22872202066,131.16705322265625,2022-02-25,1,0,0,0,0,0,0,0,0,0,0,-12.554867496711324,0
130.06631774902343,134.73148498535156,139.07409439086913,139.03404235839844,129.74856681012537,133.36954927800647,138.0119361527713,139.03404235839844,23.680433313304604,21.83225405464752,19.289649313339453,-5.906790043087028,-5.187904077955137,-0.7188859651318911,41.78520752385271,-163.2423713221362,-96.11261181831797,34.37106960166298,-10.626782367978361,3.9772403404502343,3.205787939458788,7.985874622099345,138.1347276112234,130.06631774902343,121.99790788682346,-14.751678466796875,-3.022022489191208,-4.229111793713685,100.0,21.42857142857143,-78.57142857142857,-0.8075123873201626,-0.05414996735753297,1.0482264104879127,0.9627732224270402,0.22445796287630634,0.06739731160133015,1.1645609109343316,0.08564456612308058,1.0,0.7869420636035783,3.396595609290487,6.010860484544695,9599855.953043053,12590239.293579554,-19377039.220080186,749610.9182476944,14718167.061508493,8100634.116547665,-6037189.008252936,8100634.116547665,11598818.401703572,14629503.404511454,135429705.89675012,135429705.89675012,11356073.429510588,11598818.401703572,11614939.066612124,11598818.401703572,11768085.383243375,11614939.066612124,11598818.401703572,11445672.085072322,0.048845614672914275,0.04844259805020046,1929643.5895537422,1915134.991136045,4684231.060678058,1901489.057859599,7810462.148193719,7810462.148193719,172096158.23125294,120421366.86688767,51674791.36436525,50667249.80758072,50667249.80758072,103639754.69708446,103712297.68917294,-22125612.586988397,-22125612.586988397,60178442.10362673,58558315.280317195,0.0016604284855809143,23245.9987981328,124.06436157226562,2022-02-28,1,0,0,0,0,0,0,0,0,0,0,-8.564908823146682,0
126.31602478027344,132.66853790283204,137.72174072265625,139.03404235839844,125.70009434477107,130.50293112092575,136.06824217765617,139.03404235839844,19.631122470348334,17.991235144891466,20.614068557527535,-6.800935775453013,-5.510510417454713,-1.2904253579983003,43.275846622023764,-177.97739419132012,-94.53380577978892,32.73557927662434,-14.923735649001735,4.271539735787288,3.632164408070278,8.09743187516898,136.38929445149256,126.31602478027344,116.24275510905433,-20.629470825195312,-3.821617086200447,-5.310321318797577,100.0,14.285714285714286,-85.71428571428572,-0.6718745844868377,-0.052079518052729146,1.0666987320611518,0.9576803959961416,0.22445796287630634,0.06739731160133015,1.1645609109343316,0.08564456612308058,1.0,0.7869420636035783,3.396595609290487,6.010860484544695,10127279.804443615,13281957.224635538,-20441629.42895252,790795.1484578137,15526795.065419009,8545689.507527987,-6368877.055859166,8545689.507527987,12236066.866997784,15433260.155386364,142870323.488045,142870323.488045,11979985.28967568,12236066.866997784,12253073.214276446,12236066.866997784,12414633.513423743,12253073.214276446,12236066.866997784,12074506.56785049,0.051529232254347856,0.051104073572381295,2035659.7692559203,2020354.056705124,4941586.50423446,2005958.4048162508,8239575.256512059,8239575.256512059,181551260.37336323,127037414.17161007,54513846.201753154,53450949.49683674,53450949.49683674,109333806.65452224,109410335.21727623,-23341211.639964502,-23341211.639964502,63484694.39124771,61775556.489742115,0.001751653769702254,24523.152775831557,117.6031494140625,2022-03-01,1,0,0,0,0,0,0,0,0,0,0,-1.9927756239587833,0
124.11642761230469,130.59808044433595,136.42212295532227,139.03404235839844,123.7076658424776,128.54290888764663,134.51153424053564,139.03404235839844,24.209812276084417,12.38970210366493,17.404397101067975,-7.254884121412118,-5.8593851582461935,-1.3954989631659247,44.66001149889688,-141.3794487391903,-87.45256236779117,35.34533128941468,-14.743972350902402,4.253299112449067,3.5526222227280027,4.016171009052201,134.18482619174156,124.11642761230469,114.04802903286782,-20.704574584960938,-4.335300076224043,-5.984350742437897,92.85714285714286,7.142857142857143,-85.71428571428572,0.33101861254505194,0.018023832137055606,1.034441518650351,1.011228899272161,0.22445796287630634,0.06739731160133015,1.1645609109343316,0.08564456612308058,1.0,0.7869420636035783,3.396595609290487,6.010860484544695,9947979.099059233,13046803.82261169,-20079715.998436943,776794.3377099149,15251897.426433384,8394390.423639404,-6256117.838115336,8394390.423639404,12019430.666285673,15160018.526274147,140340843.6795913,140340843.6795913,11767882.942904256,12019430.666285673,12036135.92086008,12019430.666285673,12194835.839316944,12036135.92086008,12019430.666285673,11860730.74782881,0.05061692136045252,0.05019928999609235,1999618.9725564907,1984584.2434395247,4854097.07340641,1970443.462610599,8093695.841300081,8093695.841300081,178336945.2090795,124788251.6708186,53548693.538260914,52504615.127360485,52504615.127360485,107398081.65886115,107473255.30444597,-22927961.903373297,-22927961.903373297,62360715.326260485,60681837.2415326,0.0017206412211638975,24088.977096294566,119.72280883789062,2022-03-02,1,0,0,0,0,0,0,0,0,0,0,-1.4734862456179167,0
122.32030944824218,128.43846435546874,135.07607192993163,139.03404235839844,122.15316862643037,126.8158662161356,133.03845233137378,139.03404235839844,23.743420139012063,17.101660213570234,15.827532487375548,-7.582001012217347,-6.203908329040424,-1.3780926831769227,45.581057394123135,-114.38138221532867,-88.74092624121107,36.73656045805744,-15.35559544559214,4.258939388640436,3.577612611002576,4.332262979128231,132.160564064142,122.32030944824218,112.48005483234238,-21.596160888671875,-4.869231403531038,-6.677255875025054,85.71428571428572,0.0,-85.71428571428572,-0.39270394698066396,-0.0056683822417964436,1.036925544966697,0.9859100572662756,0.22445796287630634,0.06739731160133015,1.1645609109343316,0.08564456612308058,1.0,0.7869420636035783,3.396595609290487,6.010860484544695,10004689.50337485,13121179.684526881,-20194184.354419094,781222.6060569782,15338843.856559595,8442244.291260894,-6291782.063835233,8442244.291260894,12087949.786193458,15246441.182724899,141140884.16096073,141140884.16096073,11834968.065720212,12087949.786193458,12104750.272345223,12087949.786193458,12264354.89078697,12104750.272345223,12087949.786193458,11928345.16775171,0.0509054730398418,0.05048546088604773,2011018.192366028,1995897.7548294412,4881768.80500928,1981676.361708294,8139835.540529161,8139835.540529161,179353589.91314563,125499631.55366941,53853958.35947621,52803927.97499102,52803927.97499102,108010325.46968415,108085927.65736708,-23058667.243294682,-23058667.243294682,62716214.80453118,61027765.946279,0.0017304500736315862,24226.301030842205,119.04417419433594,2022-03-03,1,0,0,0,0,0,0,0,0,0,0,2.0145407161714806,1
119.1333984375,126.10499267578125,133.58018112182617,139.03404235839844,119.84627847393536,124.70979929846465,131.34264717304725,139.03404235839844,21.265434952276905,16.789480144223067,15.426947487152747,-8.05594992855211,-6.574316648942761,-1.4816332796093485,46.715919836998296,-122.10107940005794,-96.30207509581395,38.275524794639345,-16.839998409891432,4.299373152386061,3.7310422152634755,4.82501208107918,124.94569216724256,119.1333984375,113.32110470775746,-23.334716796874986,-5.688532045891365,-7.741904038649352,100.0,0.0,-100.0,-0.5313366622733458,-0.032019005139790946,1.0298713832875899,0.9845114809054559,0.22445796287630634,0.06739731160133015,1.1645609109343316,0.08564456612308058,1.0,0.7869420636035783,3.396595609290487,6.010860484544695,10335625.964247033,13555203.825486032,-20862170.292233307,807063.9921704233,15846224.190356912,8721497.979906186,-6499902.4745768495,8721497.979906186,12487796.610034829,15750765.008487292,145809561.25212312,145809561.25212312,12226446.726290694,12487796.610034829,12505152.824920213,12487796.610034829,12670036.866331376,12505152.824920213,12487796.610034829,12322912.568623666,0.0525893311027179,0.052155425730583266,2077538.921780638,2061918.328383791,5043248.608113717,2047226.5181141058,8409086.11196925,8409086.11196925,185286272.00893232,129650925.19382928,55635346.81510305,54550583.38476646,54550583.38476646,111583105.49814303,111661208.46512726,-23821404.930191524,-23821404.930191524,64790750.16714387,63046450.57116263,0.001787690133194701,25027.66186472581,115.23249816894533,2022-03-04,1,0,0,0,0,0,0,0,0,0,0,2.5198371212878596,1
115.60995483398438,122.8381362915039,131.81865921020508,139.03404235839844,115.37990016751941,121.38931643595971,128.97164682844155,139.03404235839844,16.890065252923918,8.878539682467471,14.25656001342026,-9.0362977390281,-7.066712866959829,-1.9695848720682712,48.31977360941492,-143.56690796736223,-99.89438944531439,30.583388993889393,-23.483016011583523,4.622456658675377,4.342490088802221,8.82254224043649,125.27564009186486,115.60995483398438,105.94426957610389,-32.66856384277344,-6.8449857243296135,-9.222073383820359,100.0,7.142857142857143,-92.85714285714286,-0.9497663051616089,-0.0762402512646857,1.0747859306924892,0.9337030299640542,0.22445796287630634,0.06739731160133015,1.1645609109343316,0.08564456612308058,1.0,0.7869420636035783,3.396595609290487,6.010860484544695,11188651.571360584,14673949.416007752,-22583978.486608602,873673.0446150582,17154053.54265695,9441305.482130468,-7036356.025985791,9441305.482130468,13518446.35700074,17050715.870713234,157843596.72712052,157843596.72712052,13235526.59988647,13518446.35700074,13537235.02462687,13518446.35700074,13715727.367075108,13537235.02462687,13518446.35700074,13339954.014552502,0.05692966290717476,0.056459946216521506,2249003.514847795,2232093.7139842776,5459480.795756954,2216189.3510914375,9103109.464860123,9103109.464860123,200578421.24275386,140351347.16719323,60227074.07556063,59052782.34892748,59052782.34892748,120792344.1683916,120876893.17270918,-25787446.316863816,-25787446.316863816,70138096.24834435,68249835.15191826,0.0019352327654914192,27093.25871687987,106.4471435546875,2022-03-07,1,0,0,0,0,0,0,0,0,0,0,9.998365853798386,1
113.9811767578125,120.14860076904297,130.21515274047852,139.03404235839844,113.40635312274732,119.22021509000398,127.11332418127598,139.03404235839844,22.758071885475566,13.290139046089806,12.98605295759345,-9.461116039672973,-7.545593501502458,-1.9155225381705154,49.97305028977038,-123.026484971875,-84.20172256453529,32.19953733741686,-19.724565516907976,5.014103156360958,4.58079398732271,10.105507626273521,124.46451528990642,113.9811767578125,103.4978382257186,-26.895355224609375,-7.752077772106334,-10.343033619416062,100.0,0.0,-100.0,0.25206965698615913,0.02829681828867625,1.0976464496620675,1.0238260683806046,0.22445796287630634,0.06739731160133015,1.1645609109343316,0.08564456612308058,1.0,0.7869420636035783,3.396595609290487,6.010860484544695,10880760.664008558,14270149.586214414,-21962509.350358166,849631.1853507942,16682005.854306992,9181498.29330697,-6842728.578792956,9181498.29330697,13146443.82494401,16581511.843136467,153500034.15337682,153500034.15337682,12871309.493997509,13146443.82494401,13164715.46333865,13146443.82494401,13338296.028087737,13164715.46333865,13146443.82494401,12972863.260194922,0.05536306433576143,0.05490627337589541,2187115.115838496,2170670.6412833193,5309246.025717353,2155203.936913555,8852608.802203437,8852608.802203437,195058875.68198717,136489138.8079663,58569736.87402088,57427759.47435583,57427759.47435583,117468363.2391453,117550585.61192118,-25077823.69664441,-25077823.69664441,68208026.12719387,66371726.46853247,0.0018819787546479956,26347.70256507194,109.45925903320312,2022-03-08,1,0,0,0,0,0,0,0,0,0,0,9.88952846314544,1
112.7261245727539,118.4212760925293,128.7453098297119,139.03404235839844,113.4200847193641,118.17063923956647,125.8118216794971,139.03404235839844,29.823360324338783,29.293768320452173,17.154149016336486,-9.367977805757292,-7.910070362353425,-1.457907443403867,51.138157032169765,-76.3844735450569,-72.86545123337581,37.93272752629608,-13.213847733805784,5.032469866777821,4.435944151613519,5.271237102197034,121.52694836776213,112.7261245727539,103.92530077774568,-17.27324676513672,-8.532536729617554,-11.281944030370468,92.85714285714286,0.0,-92.85714285714286,-0.22065734426041375,0.03643628610883187,1.0175627053450804,0.996163255341199,0.22445796287630634,0.06739731160133015,1.1645609109343316,0.08564456612308058,1.0,0.7869420636035783,3.396595609290487,6.010860484544695,10498243.654570403,13768477.404230872,-21190409.5261018,819762.0989714924,16095544.00776285,8858719.456627417,-6602170.022899439,8858719.456627417,12684275.918494381,15998582.899282351,148103685.88084963,148103685.88084963,12418814.032767227,12684275.918494381,12701905.21094538,12684275.918494381,12869383.48922988,12701905.21094538,12684275.918494381,12516797.640209883,0.0534167561265295,0.05297602381525451,2110226.3063846803,2094359.9431787804,5122597.5941562615,2079436.976299811,8541392.19250942,8541392.19250942,188201511.56064874,131690814.60896876,56510696.951679975,55408866.173492484,55408866.173492484,113338721.16747794,113418052.98350744,-24196203.888997275,-24196203.888997275,65810148.71958239,64038404.828256905,0.001815817122452983,25421.439714341763,113.44754791259766,2022-03-09,1,0,0,0,0,0,0,0,0,0,0,3.2849069829265325,1
111.45061492919922,116.88546218872071,127.10955009460449,139.03404235839844,113.1689318050969,117.16990955538392,124.55989827921762,139.03404235839844,29.259018494535187,50.85261393926669,31.14550710193622,-9.250544440113842,-8.178165177905509,-1.072379262208333,52.35123003849673,-76.6923499548363,-74.83424490323424,41.66080529198879,-11.996225133729933,4.866246099472278,4.319154902610272,2.7053371245002182,117.69684829958425,111.45061492919922,105.20438155881419,-15.358139038085938,-9.152123449076017,-11.98484543042305,85.71428571428572,0.0,-85.71428571428572,0.570448771560933,-0.006883550595882415,1.0244291132103616,1.013887757709882,0.22445796287630634,0.06739731160133015,1.1645609109343316,0.08564456612308058,1.0,0.7869420636035783,3.396595609290487,6.010860484544695,10571009.73493036,13863910.332461145,-21337285.81257144,825444.0850953178,16207106.444989787,8920121.564739725,-6647931.395014979,8920121.564739725,12772193.961851208,16109473.273634428,149130231.37388742,149130231.37388742,12504892.090165932,12772193.961851208,12789945.447552182,12772193.961851208,12958584.561711442,12789945.447552182,12772193.961851208,12603554.84769195,0.053787001673952964,0.0533432145314286,2124852.838406657,2108876.5012757797,5158103.661690313,2093850.0993992188,8600594.822122183,8600594.822122183,189505985.60075408,132603598.18628009,56902387.414474,55792919.55816309,55792919.55816309,114124301.57156555,114204183.25721994,-24363914.124587607,-24363914.124587607,66266296.12173809,64482271.80879015,0.0018284030272003812,25597.64238080534,112.6666259765625,2022-03-10,1,0,0,0,0,0,0,0,0,0,0,5.385164930414479,1
110.75894317626953,114.94617080688477,125.576411819458,139.03404235839844,112.70400100483023,116.18886043700446,123.34220695779659,139.03404235839844,28.593093130301035,64.46647648998733,48.20428624990206,-9.124314442139578,-8.367395030752323,-0.7569194113872548,53.150863037315325,-68.40529835482924,-76.85715637803588,37.579671241947224,-14.784897077347525,4.7271685880174426,4.229214926825658,2.919160939104586,115.83273996562274,110.75894317626953,105.68514638691632,-19.392913818359375,-9.448491777997194,-12.248692781497269,78.57142857142857,0.0,-78.57142857142857,-0.445858015482323,-0.007921481312942569,1.0261841180586475,0.9884897317430054,0.22445796287630634,0.06739731160133015,1.1645609109343316,0.08564456612308058,1.0,0.7869420636035783,3.396595609290487,6.010860484544695,10655416.41695892,13974609.943988107,-21507658.32608669,832035.0350773969,16336515.850014266,8991346.346804127,-6701013.347021186,8991346.346804127,12874176.510498647,16238103.103929842,150320996.33731636,150320996.33731636,12604740.304946056,12874176.510498647,12892069.73705945,12874176.510498647,13062055.389387092,12892069.73705945,12874176.510498647,12704190.858171007,0.05421647647923682,0.053769145815216725,2141819.219328267,2125715.315423543,5199289.738191975,2110568.9317517676,8669268.268709652,8669268.268709652,191019140.1498656,133662402.40920763,57356737.74065797,56238411.080607705,56238411.080607705,115035553.55941042,115116073.07893404,-24558453.45470381,-24558453.45470381,66795414.7514822,64997145.48212138,0.001843002335762836,25802.032700679705,111.77413940429688,2022-03-11,1,0,0,0,0,0,0,0,0,0,0,7.605310686490377,1
112.14414978027344,113.8770523071289,124.30426864624023,139.03404235839844,112.9270595281225,115.67691791658675,122.39277549274044,139.03404235839844,31.596973765844815,72.15475411330779,62.49128151418727,-8.793876983498649,-8.452691421301589,-0.34118556219705987,53.29124489276568,-47.40383535918435,-70.61098094391227,37.367232364956024,-8.61745054104931,4.704273876970179,4.149371146772364,4.4066426333557445,115.08732914014958,112.14414978027344,109.2009704203973,-10.69118499755858,-9.537459554472278,-12.247460878812348,71.42857142857143,0.0,-71.42857142857143,-0.005435943152717379,0.01430596718464816,1.0303405085118165,0.9998359902249675,0.22445796287630634,0.06739731160133015,1.1645609109343316,0.08564456612308058,1.0,0.7869420636035783,3.396595609290487,6.010860484544695,10505130.366662988,13777509.347378328,-21204310.160753842,820299.8523086968,16106102.476512693,8864530.662045594,-6606500.961066817,8864530.662045594,12692596.63948618,16009077.762798762,148200839.98377123,148200839.98377123,12426960.614194473,12692596.63948618,12710237.496525077,12692596.63948618,12877825.638394596,12710237.496525077,12692596.63948618,12525008.497616662,0.053451796827857015,0.053010775401884605,2111610.5875559356,2095733.8162209287,5125957.951941611,2080801.0600686441,8546995.235345455,8546995.235345455,188324969.3187418,131777202.0805584,56547767.238183394,55445213.67325235,55445213.67325235,113413069.90306693,113492453.75974196,-24212076.28588573,-24212076.28588573,65853319.32620141,64080413.19379228,0.0018170082750063607,25438.115850089052,113.37317657470705,2022-03-14,1,0,0,0,0,0,0,0,0,0,0,4.629527130092235,1
113.19095916748047,113.58606796264648,123.12730293273925,138.13412124633788,113.51580834182776,115.4980793807052,121.65949268097833,138.07950367647058,34.06309068067176,74.74072435763219,70.45398498697577,-8.329462647011113,-8.428045666443493,0.09858301943238068,53.42159947282672,-31.74717404100778,-60.21789478352686,39.936212838084835,-2.474290407461033,4.5741095613685365,3.988122517451325,2.8819734585471792,115.11728009958134,113.19095916748047,111.2646382353796,-2.9098434448242188,-9.87813535303445,-12.582416387704697,64.28571428571429,0.0,-64.28571428571429,0.33548433143091017,0.01164410696088547,1.0254390157442503,1.0085016014057095,0.22445796287630634,0.06739731160133015,1.1645609109343316,0.08564456612308058,1.0,0.7869420636035783,3.396595609290487,6.010860484544695,10384215.451243827,13618929.080472592,-20960246.805029523,810858.1334724398,15920719.910975002,8762499.184298947,-6530459.591084489,8762499.184298947,12546503.807170333,15824811.95970407,146495036.1140208,146495036.1140208,12283925.27439984,12546503.807170333,12563941.616492322,12546503.807170333,12729600.805051208,12563941.616492322,12546503.807170333,12380844.618611448,0.0528365622456235,0.0524006170125738,2087305.7758419581,2071611.747452169,5066957.75388904,2056850.8685526273,8448618.616503164,8448618.616503164,186157333.4168824,130260435.63525002,55896897.781632386,54807034.699008144,54807034.699008144,112107676.13106056,112186146.27300951,-23933393.294428468,-23933393.294428468,65095342.19898103,63342842.36212125,0.0017960943601647592,25145.32104230663,114.69330596923828,2022-03-15,1,0,0,0,0,0,0,0,0,0,0,0.9660228665035464,1
114.27681579589844,113.50147018432617,122.04977531433106,137.35194869995118,115.30281591278101,116.11239786688381,121.39447728799826,137.3264576913026,41.287161320052284,79.34167893412065,75.41238580168687,-7.536954112781217,-8.249827355711037,0.7128732429298203,52.266256632260145,23.274164015470685,-45.36146915340388,50.21551227414201,-0.7066137116350291,4.629216361652622,3.894128334833405,5.34560476534574,119.25727912077275,114.27681579589844,109.29635247102414,-0.845977783203125,-9.599178772414469,-12.143458390847229,57.142857142857146,7.142857142857143,-50.0,0.6563166881753724,0.036475756366908474,1.0388606820024309,1.0254210575454592,0.22445796287630634,0.06739731160133015,1.1645609109343316,0.08564456612308058,1.0,0.7869420636035783,3.396595609290487,6.010860484544695,10018773.123688823,13139650.39395629,-20222611.745884072,782322.3345953489,15360436.37603341,8454128.454498125,-6300639.017332434,8454128.454498125,12104966.015943088,15267903.626780197,141339568.45022637,141339568.45022637,11851628.172624016,12104966.015943088,12121790.152170945,12104966.015943088,12281619.446335586,12121790.152170945,12104966.015943088,11945136.721778447,0.0509771327704066,0.05055652936471018,2013849.1064744787,1998707.3838694075,4888640.880178345,1984465.9712662976,8151294.0023967,8151294.0023967,179606066.30048704,125676297.62209153,53929768.6783955,52878260.16415445,52878260.16415445,108162371.80889243,108238080.4219178,-23091126.972733688,-23091126.972733688,62804500.53859005,61113674.847690426,0.0017328860314692674,24260.404440569746,118.8768310546875,2022-03-16,1,0,0,0,0,0,0,0,0,0,0,-8.943085047939135,0
115.66945953369141,113.5600372314453,120.99925079345704,136.57279846191406,116.74515883036312,116.75193364845536,121.22641703823912,136.6324728667624,42.50813121373052,85.12228520596528,79.73489616590604,-6.770082191220354,-7.9538783228129,1.1837961315925467,51.19343828030547,52.62432379721105,-37.03299581136997,53.03301990123227,0.49197743203739375,4.523006103254298,3.780834219002921,3.142272744076081,121.8255097339898,115.66945953369141,109.51340933339301,0.5856704711914062,-8.82214423645112,-11.08169937133789,50.0,0.0,-50.0,0.9467453083594051,0.006334401785099919,1.0269751759114263,1.0255019862387567,0.22445796287630634,0.06739731160133015,1.1645609109343316,0.08564456612308058,1.0,0.7869420636035783,3.396595609290487,6.010860484544695,9955709.658655101,13056942.474239519,-20095319.91553893,777397.983421431,15263749.652984228,8400913.69181224,-6260979.457877977,8400913.69181224,12028770.947778918,15171799.353869865,140449902.33813855,140449902.33813855,11777027.747039994,12028770.947778918,12045489.183981529,12028770.947778918,12204312.427906338,12045489.183981529,12028770.947778918,11869947.703854108,0.050656255693912605,0.05023829978884732,2001172.873452587,1986126.4608702369,4857869.184941471,1971974.6912617967,8099985.440165234,8099985.440165234,178475530.5809782,124885224.43350731,53590306.14747091,52545416.3848077,52545416.3848077,107481540.54658882,107556772.60950057,-22945779.188084174,-22945779.188084174,62409175.74434844,60728993.00598598,0.0017219783288689762,24107.69660416567,119.62984466552734,2022-03-17,1,0,0,0,0,0,0,0,0,0,0,-11.546082897436454,0
117.65895233154296,114.20894775390624,120.15697021484375,135.80121856689453,118.4039736847603,117.65550996574615,121.27357764350727,136.04773288742092,45.87527036041917,92.72094210312129,85.72830208106906,-5.925240733730661,-7.548150804996452,1.6229100712657916,49.412323129364665,109.38918550029194,-9.797507149311082,55.71355553517413,5.631315234609868,4.473522834798005,3.6752085990307317,3.8302403448661977,123.92222374589171,117.65895233154296,111.39568091719421,6.489105224609347,-8.02320765819369,-10.005124801244492,42.85714285714286,0.0,-42.85714285714286,0.41262034343362963,0.01748525824701752,1.0323721446943754,1.013154817027359,0.22445796287630634,0.06739731160133015,1.1645609109343316,0.08564456612308058,1.0,0.7869420636035783,3.396595609290487,6.010860484544695,9784622.998673586,12832561.816900205,-19749986.30462746,764038.5716848393,15001445.504263619,8256545.855303909,-6153385.916042415,8256545.855303909,11822059.189833159,14911075.350623477,138036301.95106095,138036301.95106095,11574642.140103474,11822059.189833159,11838490.126858639,11822059.189833159,11994584.028600702,11838490.126858639,11822059.189833159,11665965.288091095,0.049785739187205656,0.04937496576156865,1966783.1619500057,1951995.3186270732,4774387.781608638,1938086.7440371856,7960788.988845261,7960788.988845261,175408468.21551618,122739099.5803387,52669368.63517747,51642435.07108495,51642435.07108495,105634494.13681358,105708433.35342824,-22551461.06747187,-22551461.06747187,61336687.91611839,59685378.745057605,0.0016923865136244827,23693.411190742758,121.72160339355467,2022-03-18,1,0,0,0,0,0,0,0,0,0,0,-14.439592250211739,0
118.9530517578125,115.54860076904296,119.19336853027343,135.0380126953125,118.88387369185843,118.05335791852951,121.13739631613083,135.41227958619086,43.416800569938566,88.21320981497796,88.68547904135484,-5.3456101568229855,-7.107642675361759,1.7620325185387733,47.75843048920535,96.18387709665583,-12.356765559331524,53.41853684641007,12.585147617873528,4.355192408302334,3.634061167871478,2.8168968638586023,123.60642713774932,118.9530517578125,114.29967637787568,13.396530151367173,-7.323980670357506,-9.069529411120286,35.714285714285715,0.0,-35.714285714285715,-0.5247514780384236,-0.015428072216796318,1.023647847216334,0.9878161200161636,0.22445796287630634,0.06739731160133015,1.1645609109343316,0.08564456612308058,1.0,0.7869420636035783,3.396595609290487,6.010860484544695,9937946.352689529,13033645.84626452,-20059465.182087008,776010.9242654291,15236515.566759933,8385924.50415867,-6249808.411557059,8385924.50415867,12007308.81739734,15144729.328405956,140199306.9839542,140199306.9839542,11756014.785191128,12007308.81739734,12023997.22437079,12007308.81739734,12182537.090618566,12023997.22437079,12007308.81739734,11848768.951149564,0.05056587312955377,0.05014866295521752,1997602.3147219757,1982582.7484458706,4849201.6143079875,1968456.228892136,8085533.178636569,8085533.178636569,178157088.64506644,124662400.09167217,53494688.553394265,52451663.11755364,52451663.11755364,107289768.43231063,107364866.26369116,-22904838.571060248,-22904838.571060248,62297823.23188919,60620638.33105745,0.001718905918265359,24064.68285571503,119.84367370605467,2022-03-21,1,0,0,0,0,0,0,0,0,0,0,-11.454525198702562,0
120.27132873535156,116.73114395141602,118.43987236022949,134.35752395629882,119.68414608021682,118.64087299823935,121.15142436763585,134.858256498769,45.81634630419208,85.44138290990081,88.79184494266669,-4.715612067075085,-6.629236553704424,1.913624486629339,46.17348973902191,106.67047722544365,-4.633641026863917,56.555241879530406,10.80350070718401,4.204145343362865,3.4663446092483676,2.2405334991497625,122.40096979261705,120.27132873535156,118.14168767808607,11.825431823730469,-6.40707873597852,-7.8908973596035,28.571428571428573,85.71428571428572,57.142857142857146,0.1290351690361606,0.012024140334794486,1.014367376130781,1.0018430770305193,0.22445796287630634,0.06739731160133015,1.1645609109343316,0.08564456612308058,1.0,0.7869420636035783,3.396595609290487,6.010860484544695,9819870.847549042,12878789.474283462,-19821133.09614433,766790.9226045851,15055486.286838414,8286289.002339872,-6175552.699256282,8286289.002339872,11864646.641161269,14964790.586315291,138533560.01722836,138533560.01722836,11616338.303256325,11864646.641161269,11881136.76852911,11864646.641161269,12037792.978523595,11881136.76852911,11864646.641161269,11707990.431166783,0.04996508592455683,0.04955283274036082,1973868.2459305127,1959027.131299456,4791586.90098419,1945068.452854235,7989466.7097187415,7989466.7097187415,176040354.71538168,123181251.43776883,52859103.27761285,51828470.31712282,51828470.31712282,106015028.84784684,106089234.42100212,-22632699.81236114,-22632699.81236114,61557645.46414874,59900387.66368076,0.0016984831188875755,23778.76366442606,121.2846908569336,2022-03-22,1,0,0,0,0,0,0,0,0,0,0,-16.4492392193836,0
120.43309020996094,117.35495300292969,117.88811454772949,133.6732063293457,119.68464352938933,118.83083034905663,121.01182570669286,134.26325186853236,43.60645675602186,72.4549302979206,82.03650767426647,-4.295844389207872,-6.162558120805114,1.8667137315972422,44.88269853052626,84.96946787542885,-13.203754878123744,56.542611546387775,5.4986561013576685,4.059236597143746,3.3915820230968596,2.1754228962952027,122.20775395787541,120.43309020996094,118.65842646204646,6.238090515136719,-4.9608469147186405,-6.074343999226883,21.42857142857143,78.57142857142857,57.142857142857146,-0.23076672274605817,-0.013184289112674996,1.0182100882326117,0.9958230716953003,0.22445796287630634,0.06739731160133015,1.1645609109343316,0.08564456612308058,1.0,0.7869420636035783,3.396595609290487,6.010860484544695,9951068.613124542,13050855.729387518,-20085952.095677074,777035.5844001531,15256634.162523435,8396997.444324235,-6258060.781889405,8396997.444324235,12023163.504858283,15164726.727809438,140384428.91496098,140384428.91496098,11771537.659054035,12023163.504858283,12039873.947533555,12023163.504858283,12198623.15294864,12039873.947533555,12023163.504858283,11864414.299443198,0.05063264130607449,0.05021488023919269,2000239.9882300715,1985200.5898223266,4855604.595791944,1971055.4173334634,8096209.476169337,8096209.476169337,178392330.7798674,124827006.78428265,53565323.99558475,52520921.32838024,52520921.32838024,107431435.95932439,107506632.95136312,-22935082.571810972,-22935082.571810972,62380082.50679079,60700683.01792594,0.0017211755955530272,24096.45833774238,119.68563842773438,2022-03-23,1,0,0,0,0,0,0,0,0,0,0,-14.146836997454523,0
120.58741607666016,118.12843780517578,117.50694999694824,132.95468032836914,119.92358701926737,119.11640192177786,120.9536969726291,133.71965273639475,44.88799503080362,65.91891070000067,74.6050746359407,-3.8609073950015755,-5.702227975644407,1.8413205806428312,43.68410669406602,74.5802710486898,-9.367237555298315,57.94672458017012,6.8652522034963415,3.885499796201266,3.227119791102209,1.6269213839490249,122.18077807876094,120.58741607666016,118.99405407455939,7.7348480224609375,-3.6098197715010722,-4.39226546654335,14.285714285714286,71.42857142857143,57.142857142857146,0.1199951171875033,0.005980964639473285,1.0136017406356983,1.001624063806047,0.22445796287630634,0.06739731160133015,1.1645609109343316,0.08564456612308058,1.0,0.7869420636035783,3.396595609290487,6.010860484544695,9891905.476254053,12973263.10151875,-19966532.968022455,772415.79285611,15165927.287690934,8347073.890541834,-6220854.073647596,8347073.890541834,11951680.923870347,15074566.27993376,139549786.57600388,139549786.57600388,11701551.095723523,11951680.923870347,11968292.016189834,11951680.923870347,12126097.393224953,11968292.016189834,11951680.923870347,11793875.546835227,0.05033160972804329,0.049916332420056136,1988347.7506425024,1973397.7675549649,4826736.058104352,1959336.6938507198,8048074.228791081,8048074.228791081,177331716.05667531,124084859.62656218,53246856.43011313,52208663.16014524,52208663.16014524,106792712.521977,106867462.4374147,-22798724.20849486,-22798724.20849486,62009207.62864212,60339792.85053375,0.0017109425089070823,23953.195124699152,120.40147399902344,2022-03-24,1,0,0,0,0,0,0,0,0,0,0,-14.207374543303317,0
120.31409301757813,118.98652267456055,116.96634674072266,132.24189178466796,120.06738737889309,119.34159940838998,120.89667707982105,133.1955482407771,44.81676954706816,50.849053839598334,63.0742982791732,-3.479854125024005,-5.257753205520326,1.7778990804963213,42.63987708498397,60.968291772097736,-9.616378518868993,58.86591511856481,7.676953488149851,3.7069078320422206,3.0799785622673075,1.3852122979746326,121.4339564054736,120.31409301757813,119.19422962968267,8.580848693847642,-2.5116282346313246,-3.0364397978171382,7.142857142857143,64.28571428571429,57.142857142857146,0.1610769183504018,-0.00038609079552709424,1.0116107338261058,1.0018573401245687,0.22445796287630634,0.06739731160133015,1.1645609109343316,0.08564456612308058,1.0,0.7869420636035783,3.396595609290487,6.010860484544695,9895726.125025984,12978273.893610904,-19974244.840102825,772714.1306695353,15171784.974221198,8350297.863686913,-6223256.815822386,8350297.863686913,11956297.140144745,15080388.67919577,139603686.27429605,139603686.27429605,11706070.701873306,11956297.140144745,11972914.648331186,11956297.140144745,12130780.976102382,11972914.648331186,11956297.140144745,11798430.812373549,0.0503510498049181,0.04993561210025706,1989115.7299170617,1974159.9725492643,4828600.336249457,1960093.4678970478,8051182.716330964,8051182.716330964,177400208.6443575,124132786.15271889,53267422.49163861,52228828.229986005,52228828.229986005,106833960.13063316,106908738.91747215,-22807529.985891122,-22807529.985891122,62033158.05998656,60363098.48724918,0.0017116033432034866,23962.446804848812,120.35498809814452,2022-03-25,1,0,0,0,0,0,0,0,0,0,0,-12.513590187211296,0
120.43309326171875,119.69307250976563,116.78506240844726,131.5239242553711,120.191149894848,119.54106768445686,120.85305782714836,132.69527869905085,44.98600794363411,50.71340299626502,55.82712251195468,-3.13497578614907,-4.833197721646075,1.6982219354970045,41.89042086097844,47.81680521319022,-14.995841200922492,57.86627440939894,6.232072316854387,3.5995086337216873,2.9886650911018835,2.2033190555547577,121.44937611303855,120.43309326171875,119.41681041039895,7.065498352050753,-1.4072756762921164,-1.6915175120035855,0.0,57.142857142857146,57.142857142857146,-0.04641370585338803,0.000695333279789212,1.018618923163924,0.9991516226496627,0.22445796287630634,0.06739731160133015,1.1645609109343316,0.08564456612308058,1.0,0.7869420636035783,3.396595609290487,6.010860484544695,9888850.078467578,12969255.93834287,-19960365.733531535,772177.2101574179,15161242.857499411,8344495.658152742,-6218932.585031248,8344495.658152742,11947989.305554027,15069910.069201222,139506682.63510683,139506682.63510683,11697936.737155093,11947989.305554027,11964595.267062787,11947989.305554027,12122351.901396023,11964595.267062787,11947989.305554027,11790232.67122079,0.05031606337154788,0.04990091433382884,1987733.5925987726,1972788.2272408872,4825245.182690789,1958731.49670122,8045588.350995032,8045588.350995032,177276942.0867853,124046532.47044972,53230409.616335556,52192537.022037946,52192537.022037946,106759726.53982882,106834453.36661825,-22791682.170775402,-22791682.170775402,61990054.31220734,60321155.18057679,0.0017104140354024526,23945.79649563434,120.4386749267578,2022-03-28,1,0,0,0,0,0,0,0,0,0,0,-11.318126067312969,0
121.44270477294921,120.8570167541504,117.22154235839844,130.99458923339844,122.2383494009273,120.77591872602578,121.37493312104718,132.4457677074444,55.36801080033615,59.58352687644547,53.71532790410294,-2.358863239276161,-4.338330825172092,1.9794675858959305,39.15753308621858,167.2802828649006,-10.750428692275817,58.712635278814076,10.14831889750345,3.897544392956077,3.085141771959073,7.772009263003142,126.36410083221469,121.44270477294921,116.52130871368374,11.639442443847656,0.011154104977088809,0.013352174025314412,7.142857142857143,100.0,92.85714285714286,0.47627940644227146,0.04893837872188889,1.0397316367363632,1.0188183716820314,0.22445796287630634,0.06739731160133015,1.1645609109343316,0.08564456612308058,1.0,0.7869420636035783,3.396595609290487,6.010860484544695,9427484.282267325,12364173.340807356,-19029111.851024896,736151.1656178515,14453892.77869029,7955181.951031622,-5928787.344599687,7955181.951031622,11390554.057248263,14366821.135445168,132997977.25495851,132997977.25495851,11152167.72925098,11390554.057248263,11406385.265111012,11390554.057248263,11556781.739807133,11406385.265111012,11390554.057248263,11240157.582552142,0.04796855982413097,0.047572779627562234,1894995.5811711147,1880747.49409464,4600122.638824844,1867346.5824445249,7670220.209502131,7670220.209502131,169006059.53878224,118259122.73473874,50746936.80404351,49757486.31262167,49757486.31262167,101778835.34961651,101850075.78499888,-21728332.79162368,-21728332.79162368,59097898.95164387,57506862.56143755,0.001630614409863198,22828.601738084773,126.33274841308594,2022-03-29,1,0,0,0,0,0,0,0,0,0,0,-10.539368884704993,0
122.22362670898437,121.32835845947265,117.41491432189942,130.43281478881835,122.68898230325492,121.28761497727749,121.58591550074841,132.0984924290313,50.584555264356524,63.419988847570416,57.905639573426974,-1.942691174312543,-3.8592028950001818,1.9165117206876388,36.46114311760545,115.17406199085953,-27.626343520504147,56.785879334506525,3.9649585301060997,3.876133680734204,3.136277934606816,3.597794421849855,127.01951151563539,122.22362670898437,117.42774190233335,4.713417053222656,1.1371950294256539,1.3557119614038697,0.0,92.85714285714286,92.85714285714286,-0.5218863349123074,-0.021708546197445888,1.0224965999438513,0.9884749573317804,0.22445796287630634,0.06739731160133015,1.1645609109343316,0.08564456612308058,1.0,0.7869420636035783,3.396595609290487,6.010860484544695,9636682.65282633,12638537.6185682,-19451372.87774517,752486.5547547009,14774628.48367832,8131709.543316929,-6060348.704422268,8131709.543316929,11643313.465505533,14685624.697632065,135949237.55901596,135949237.55901596,11399637.28181744,11643313.465505533,11659495.972059397,11643313.465505533,11813229.78432111,11659495.972059397,11643313.465505533,11489579.65324382,0.049032994858209535,0.04862843219436293,1937046.0344975847,1922481.7785991067,4702200.577286525,1908783.4971738455,7840424.425347367,7840424.425347367,172756348.71578082,120883323.95736808,51873024.75841276,50861618.09879623,50861618.09879623,104037334.6347951,104110155.91428748,-22210490.245179072,-22210490.245179072,60409296.965576306,58782955.05691292,0.001666798175048047,23335.174450672657,123.59024810791016,2022-03-30,1,0,0,0,0,0,0,0,0,0,0,-8.335055123947022,0
122.51368560791016,121.55055084228516,117.55529403686523,129.87775756835939,122.40991103338739,121.3901883438911,121.61123483340593,131.69666011783997,47.767331139873384,56.591363452600554,59.86495972553882,-1.7331736433637417,-3.4339970446728936,1.7008234013091519,34.0187956669671,78.36171058739235,-41.155138322505294,52.91805818631485,1.8573323691402077,3.7626236208461976,3.0878695216000946,2.286992842302112,126.9990400918268,122.51368560791016,118.02833112399352,2.221923828125,1.9292366854686285,2.2933668968005065,0.0,85.71428571428572,85.71428571428572,-0.5691016567526102,-0.014066478875743416,1.0187772446150192,0.9894316155840304,0.22445796287630634,0.06739731160133015,1.1645609109343316,0.08564456612308058,1.0,0.7869420636035783,3.396595609290487,6.010860484544695,9774170.820196534,12818853.754111659,-19728888.87636647,763222.4066148426,14985420.585792502,8247726.006966848,-6146812.715639969,8247726.006966848,11809430.571169447,14895146.9678058,137888848.1284149,137888848.1284149,11562277.818506945,11809430.571169447,11825843.956257937,11809430.571169447,11981771.114598604,11825843.956257937,11809430.571169447,11653503.41282878,0.04973255681812845,0.04932222219091617,1964682.1950924015,1949910.1485127592,4769287.661428351,1936016.4314093576,7952285.075374005,7952285.075374005,175221092.51218823,122607986.61102957,52613105.90115867,51587269.33312797,51587269.33312797,105521652.73391017,105595512.9668084,-22527371.033954225,-22527371.033954225,61271166.5353378,59621621.333944425,0.0016905786641145976,23668.101297604368,121.85176849365234,2022-03-31,1,0,0,0,0,0,0,0,0,0,0,-8.583185333993253,0
123.35968322753907,121.83688812255859,118.02291793823242,129.4116290283203,123.13493275435461,121.97105886250891,121.89444829653766,131.41777055228894,52.26822493136635,50.69055361194085,56.90063530403728,-1.3312368021722847,-3.0134449961727716,1.682208194000487,31.59513616448111,102.23644589297169,-24.29906871623278,60.280740828340825,2.3523949101101005,3.6937427452077176,2.964838022995698,2.7982913619074736,127.47790769531517,123.35968322753907,119.24145875976296,2.863372802734389,2.4434023754915044,2.9013452285375365,0.0,78.57142857142857,78.57142857142857,0.40779819492241526,0.022430595275103382,1.0214841341020464,1.0086556818545942,0.22445796287630634,0.06739731160133015,1.1645609109343316,0.08564456612308058,1.0,0.7869420636035783,3.396595609290487,6.010860484544695,9559740.157782167,12537627.310206335,-19296066.615708087,746478.4506076756,14656662.91193135,8066783.256566817,-6011960.854894076,8066783.256566817,11550349.359402636,14568369.761859475,134863773.40978673,134863773.40978673,11308618.767805854,11550349.359402636,11566402.659415703,11550349.359402636,11718909.009539852,11566402.659415703,11550349.359402636,11397843.009278487,0.04864149903959692,0.04824016653927021,1921580.0115642746,1907132.0415525131,4664656.636321694,1893543.1317843508,7777823.856331587,7777823.856331587,171377004.28951055,119918151.09762014,51458853.19189041,50455521.94107364,50455521.94107364,103206665.78401604,103278905.63407485,-22033154.26793623,-22033154.26793623,59926968.948783934,58313612.29747057,0.001653489901346034,23148.858618844475,124.58497619628906,2022-04-01,1,0,0,0,0,0,0,0,0,0,0,-12.133026879650831,0
124.06994934082032,122.25152130126953,118.90006103515626,129.0254656982422,123.41995700062442,122.33814006808258,122.09402517240684,131.12648564800955,51.23328211312311,44.357721271536754,50.54654611202606,-1.048620281235415,-2.6204800531853003,1.5718597719498852,29.344595197886978,84.67550005781206,-33.33324049806572,61.82581434547686,3.4597836155117134,3.5620479708040427,2.87285088555015,1.8500159035562689,126.97406268098788,124.06994934082032,121.16583600065275,4.146331787109389,2.9888178897383013,3.5407322614620824,0.0,71.42857142857143,71.42857142857143,0.015463268837517072,-0.004775621598125945,1.014694761237869,1.000224979601926,0.22445796287630634,0.06739731160133015,1.1645609109343316,0.08564456612308058,1.0,0.7869420636035783,3.396595609290487,6.010860484544695,9605612.930355612,12597789.586243043,-19388659.51685549,750060.455518952,14726993.459974263,8105492.019317707,-6040809.475093495,8105492.019317707,11605774.145072816,14638276.631902128,135510922.29709068,135510922.29709068,11362883.60014369,11605774.145072816,11621904.477449568,11605774.145072816,11775142.635028709,11621904.477449568,11605774.145072816,11452535.987493675,0.048874907101557515,0.04847164879213873,1930800.7854971732,1916283.4863580968,4687040.166572461,1902629.3696954974,7815146.036536178,7815146.036536178,172199363.2880123,120493582.85433488,51705780.433677435,50697634.660130456,50697634.660130456,103701906.8501364,103774493.34583178,-22138881.18709165,-22138881.18709165,60214530.762413934,58593432.35855039,0.0016614242348054204,23259.939287275887,123.99000549316406,2022-04-04,1,0,0,0,0,0,0,0,0,0,0,-13.87322173090704,0
123.42290344238282,122.43280410766602,119.58197402954102,128.61608184814452,123.31247764071576,122.47620895041274,122.18959600559651,130.8116242077307,49.64529316220593,44.21859260778006,46.422289163752566,-0.8864425024344342,-2.273672543035127,1.3872300406006928,27.48723436307325,49.01066921294478,-43.616107666942575,60.054930989588286,1.4946882835388031,3.4603465516288714,2.8110611667587424,2.138228102351647,125.27208967905909,123.42290344238282,121.57371720570654,1.8128280639648438,3.1179734049375996,3.6925781445625603,0.0,64.28571428571429,64.28571428571429,-0.07825810046971585,-0.007198052526216192,1.0175290578102354,0.9986424867580312,0.22445796287630634,0.06739731160133015,1.1645609109343316,0.08564456612308058,1.0,0.7869420636035783,3.396595609290487,6.010860484544695,9675255.930749733,12689126.585920304,-19529231.954258904,755498.5739376366,14833767.699033594,8164258.782874459,-6084606.794400965,8164258.782874459,11689918.79458343,14744407.652653875,136493409.024733,136493409.024733,11445267.234876916,11689918.79458343,11706166.07574338,11689918.79458343,11860515.246762896,11706166.07574338,11689918.79458343,11535569.623563912,0.04922926191464599,0.04882307988564726,1944799.5548459159,1930177.0018019618,4721022.33330503,1916423.8895147198,7871807.721995374,7871807.721995374,173447850.0230374,121367190.26482032,52080659.758217074,51065204.68572025,51065204.68572025,104453770.57731323,104526883.342533,-22299393.39203024,-22299393.39203024,60651100.570090264,59018248.81351537,0.0016734699594747647,23428.579432646708,123.09751892089844,2022-04-05,1,0,0,0,0,0,0,0,0,0,0,-10.578117711720585,0
123.6460205078125,122.93482360839843,120.14488830566407,128.25812637329102,123.77692957216337,122.88159522034834,122.42923766554529,130.57218143233177,52.50236560207534,54.48161715458817,47.685977011301674,-0.6209796375441528,-1.943133961936932,1.3221543243927794,26.162512758053918,53.90556875932327,-35.43235693254069,61.64458458638163,4.1944840444289255,3.515321651656458,2.8188911094420335,4.229997952015083,125.77080024736179,123.6460205078125,121.5212407682632,5.020195007324219,3.2220004392667296,3.824577967325851,0.0,57.142857142857146,57.142857142857146,0.6483505427765647,0.013065369052593478,1.0350377562788577,1.0224864463247476,0.22445796287630634,0.06739731160133015,1.1645609109343316,0.08564456612308058,1.0,0.7869420636035783,3.396595609290487,6.010860484544695,9550475.444440385,12525476.611432312,-19277366.052422073,745755.0095154962,14642458.573927913,8058965.425409394,-6006134.431474265,8058965.425409394,11539155.469815042,14554250.992157264,134733071.71913296,134733071.71913296,11297659.148669142,11539155.469815042,11555193.211955162,11539155.469815042,11707551.762286283,11555193.211955162,11539155.469815042,11386796.91948392,0.04859435868455814,0.04819341513105518,1919717.7341721482,1905283.7662460417,4660135.93744703,1891708.0260150796,7770286.066887266,7770286.066887266,171210916.2168318,119801933.78668293,51408982.43014888,50406623.546391495,50406623.546391495,103106644.21881989,103178814.05845042,-22011801.087312225,-22011801.087312225,59868891.40906123,58257098.32397935,0.0016518874404321741,23126.42416605044,124.7058334350586,2022-04-06,1,0,0,0,0,0,0,0,0,0,0,-11.057338733492864,0
124.21869354248047,123.3661895751953,120.74731369018555,127.90961776733398,124.08966427043964,123.21496584701086,122.64694204663547,130.3424932846714,52.519142328271954,71.56657862409016,56.75559612881947,-0.40517732162065556,-1.6355426338736767,1.2303653122530211,24.766989037697638,68.07034212186133,-35.40492071858042,60.71996772612476,3.582729948973684,3.499301343568181,2.8058353791383746,3.2910373384205798,125.46038651922792,124.21869354248047,122.97700056573301,4.313659667968764,3.295739325082023,3.9184357080704046,0.0,50.0,50.0,0.21468719557927676,7.457736079730104e-05,1.0269530123620125,1.005697537373967,0.22445796287630634,0.06739731160133015,1.1645609109343316,0.08564456612308058,1.0,0.7869420636035783,3.396595609290487,6.010860484544695,9549763.248301089,12524542.564102689,-19275928.504547287,745699.3972225032,14641366.659443988,8058364.453856083,-6005686.543222096,8058364.453856083,11538294.974227764,14553165.655471433,134723024.43153223,134723024.43153223,11296816.661897087,11538294.974227764,11554331.520404592,11538294.974227764,11706678.709084459,11554331.520404592,11538294.974227764,11385947.7855479,0.04859073491578891,0.04818982126136821,1919574.5773663146,1905141.6858071694,4659788.42272459,1891566.9579435848,7769706.622673178,7769706.622673178,171198148.7107276,119792999.94090535,51405148.76982224,50402864.63377049,50402864.63377049,103098955.37082738,103171119.8286231,-22010159.627696466,-22010159.627696466,59864426.87809902,58252753.98732781,0.0016517642562132865,23124.699586986015,124.7151336669922,2022-04-07,1,0,0,0,0,0,0,0,0,0,0,-10.584699188127848,0
123.94351348876953,123.6515983581543,121.31906051635742,127.53283950805664,123.79613482287122,123.21389495259696,122.70047860674013,130.06275142753663,49.47177203677835,75.96447660510675,67.33755746126171,-0.351625385819446,-1.3787591842628306,1.0271337984433846,23.29006668839537,58.52695802063248,-50.65912874924934,60.04811545286325,2.371391393651634,3.4571990733272764,2.8059613687509692,2.909869560195517,125.3388761645927,123.94351348876953,122.54815081294635,2.854087829589858,3.4033809700234863,4.051866971529449,35.714285714285715,42.85714285714286,7.142857142857143,-0.5942484692484694,-0.012075982240288718,1.0236673337074669,0.9861596798958329,0.22445796287630634,0.06739731160133015,1.1645609109343316,0.08564456612308058,1.0,0.7869420636035783,3.396595609290487,6.010860484544695,9666495.678439755,12677637.489271954,-19511549.6313763,754814.5240091496,14820336.783233412,8156866.630421456,-6079097.618095194,8156866.630421456,11679334.409130821,14731057.645985017,136369824.0043197,136369824.0043197,11434904.363915127,11679334.409130821,11695566.97953962,11679334.409130821,11849776.39842321,11695566.97953962,11679334.409130821,11525124.990247231,0.049184688338660715,0.04877887407844075,1943038.6779332303,1928429.3645653115,4716747.785210716,1914688.7047376784,7864680.363063076,7864680.363063076,173290805.39913285,121257300.95372792,52033504.44540493,51018968.794855,51018968.794855,104359195.15816824,104432241.72500783,-22279202.886076514,-22279202.886076514,60596185.33604636,58964812.00996207,0.0016719547521062883,23407.366529488037,123.20907592773438,2022-04-08,1,0,0,0,0,0,0,0,0,0,0,-9.719132641371802,0
123.64230041503906,123.85612487792969,121.77459869384765,127.1148876953125,123.35873659008472,123.0811758929451,122.67985589414695,129.7655431411435,48.02681866201949,56.022303800963535,67.85111967672016,-0.36350720519729407,-1.1757087884497233,0.8122015832524292,22.204397520379494,24.973163505284738,-58.0037159483401,57.866936640916336,1.6981797574555646,3.434705355667257,2.804208741305749,3.142287026087004,125.45521907104228,123.64230041503906,121.82938175903584,2.0452651977539205,3.307133674437531,3.9465042016445153,28.571428571428573,35.714285714285715,7.142857142857143,-0.0917151215284116,-0.005885408990876417,1.0257230216119737,0.9976526006033263,0.22445796287630634,0.06739731160133015,1.1645609109343316,0.08564456612308058,1.0,0.7869420636035783,3.396595609290487,6.010860484544695,9723723.769738976,12752692.299187472,-19627062.92397355,759283.216276847,14908076.91313465,8205157.337185281,-6115087.408509229,8205157.337185281,11748479.0131439,14818269.22088685,137177167.74068367,137177167.74068367,11502601.880440744,11748479.0131439,11764807.684461681,11748479.0131439,11919930.061980607,11764807.684461681,11748479.0131439,11593356.635624975,0.04947587409287841,0.04906765730993387,1954541.956738464,1939846.1525524606,4744672.121171419,1926024.1445546856,7911241.253465211,7911241.253465211,174316730.65297806,121975174.74382895,52341555.909149095,51321013.95178774,51321013.95178774,104977027.90201825,105050506.92294827,-22411101.38365532,-22411101.38365532,60954930.02927891,59313898.56184186,0.0016818531457315103,23545.944040241146,122.48394012451172,2022-04-11,1,0,0,0,0,0,0,0,0,0,0,-10.122537912940633,0
122.9543441772461,123.18862380981446,122.02282028198242,126.61503799438476,122.12507030403434,122.458732590943,122.3920351167933,129.36915861529212,42.78204768369628,31.61528176020855,54.53402072209295,-0.5941258334032966,-1.0593921974404379,0.4652663640371413,22.250531005781273,-92.20814406626594,-86.62909870053521,48.98103960007163,-5.283674078969791,3.5472918865013976,2.9645319673754087,5.010916787345224,126.67691066183657,122.9543441772461,119.23177769265563,-6.675010681152344,2.820650185962106,3.380300228412338,21.42857142857143,28.571428571428573,7.142857142857143,-0.6252310758438346,-0.023074064972968156,1.0421818707242132,0.9744851978310985,0.22445796287630634,0.06739731160133015,1.1645609109343316,0.08564456612308058,1.0,0.7869420636035783,3.396595609290487,6.010860484544695,9953388.912200306,13053898.808444062,-20090635.554097008,777216.7664438526,15260191.564800804,8398955.379312601,-6259519.979209092,8398955.379312601,12025966.956050579,15168262.699952608,140417162.47085604,140417162.47085604,11774282.438435277,12025966.956050579,12042681.295113888,12025966.956050579,12201467.51621532,12042681.295113888,12025966.956050579,11867180.734949147,0.05064444736182523,0.050226588885242514,2000706.3858780463,1985663.4807210686,4856736.781217843,1971515.0099903855,8098097.276173045,8098097.276173045,178433926.67035156,124856112.80291568,53577813.8674359,52533167.675979115,52533167.675979115,107456485.83801137,107531700.36379625,-22940430.364391133,-22940430.364391133,62394627.72333122,60714836.6474687,0.0017215769235207916,24102.076929291085,119.6577377319336,2022-04-12,1,0,0,0,0,0,0,0,0,0,0,-10.88765660367951,0
122.29427795410156,122.97014923095703,122.14925384521484,126.12884475708007,121.88521430913487,122.26723617792354,122.29807961227354,129.0568583683919,46.66131221472332,27.816588174628304,38.48472457860013,-0.6286164629639046,-0.9732370505451312,0.3446205875812266,22.293369242225783,-94.14023982504419,-68.9267464533964,51.438896095654975,-1.7677331521065098,3.465903473621069,2.8548158093400215,2.4078541061767993,125.69717506405402,122.29427795410156,118.8913808441491,-2.1847457885742188,2.494914591439793,3.001398282173355,14.285714285714286,21.42857142857143,7.142857142857143,0.7992211571883897,0.014606364958343221,1.0201887265743559,1.0161063803035777,0.22445796287630634,0.06739731160133015,1.1645609109343316,0.08564456612308058,1.0,0.7869420636035783,3.396595609290487,6.010860484544695,9810099.025555553,12865973.701022482,-19801408.948308606,766027.8836076125,15040504.467392478,8278043.258340329,-6169407.363678514,8278043.258340329,11852840.048509188,14949899.018793728,138395704.30510867,138395704.30510867,11604778.803963738,11852840.048509188,11869313.766436232,11852840.048509188,12025814.086743165,11869313.766436232,11852840.048509188,11696339.728202255,0.04991536531894765,0.04950352237077152,1971904.035867338,1957077.6897329972,4786818.759428191,1943132.9016660862,7981516.335653511,7981516.335653511,175865175.7301735,123058672.91502936,52806502.81514413,51776895.44470379,51776895.44470379,105909532.55297507,105983664.28364678,-22610177.854869854,-22610177.854869854,61496389.02166059,59840780.369992524,0.0016967929464856792,23755.10125079951,121.40550231933594,2022-04-13,1,0,0,0,0,0,0,0,0,0,0,-10.739658271403346,0
